0.044495,0.044383,0.044258,0.044212,0.044184,0.044229,0.044323,0.044451,0.044668,0.045067,0.045552,0.046264,0.047143,0.048298,0.049758,0.051425,0.053479,0.055774,0.058278,0.061135,0.064071,0.06724,0.070612,0.073918,0.077467,0.081006,0.084375,0.087863,0.091143,0.094318,0.097417,0.10022,0.10297,0.10558,0.10789,0.11024,0.11251,0.11474,0.11701,0.11918,0.12144,0.12366,0.12569,0.12772,0.12954,0.13115,0.13256,0.1337,0.13461,0.13527,0.13563,0.13574,0.13558,0.13513,0.13439,0.13338,0.13206,0.13048,0.12878,0.12684,0.12482,0.12279,0.12073,0.11876,0.11684,0.11499,0.11334,0.11174,0.11027,0.10901,0.10781,0.10677,0.10583,0.105,0.10429,0.10363,0.10304,0.10252,0.10203,0.10159,0.10117,0.10075,0.10038,0.099967,0.099562,0.099137,0.098691,0.098236,0.097719,0.097187,0.096654,0.096113,0.095565,0.095056,0.094555,0.094132,0.093745,0.093432,0.093188,0.093018,0.092972,0.093,0.093155,0.093395,0.093772,0.094267,0.09491,0.095693,0.096656,0.097709,0.099005,0.10037,0.102,0.1038,0.10569,0.1078,0.11005,0.11244,0.11503,0.11761,0.12039,0.12328,0.12612,0.12914,0.13209,0.13513,0.13818,0.14107,0.14401,0.14684,0.14948,0.1521,0.15453,0.15691,0.15926,0.16144,0.16372,0.16601,0.1684,0.17106,0.17388,0.17709,0.18068,0.1845,0.18889,0.1936,0.19884,0.20466,0.21074,0.21755,0.22481,0.23231,0.24057,0.24886,0.2577,0.26677,0.27561,0.28478,0.29365,0.30241,0.31116,0.31914,0.32704,0.33439,0.34111,0.34742,0.35293,0.35795,0.36249,0.36621,0.36959,0.37237,0.37477,0.37683,0.37846,0.37991,0.38109,0.38206,0.3829,0.38356,0.38408,0.38445,0.3847,0.38476,0.38469,0.38445,0.38405,0.38353,0.38284,0.38206,0.38117,0.38019,0.37919,0.37807,0.37691,0.37575,0.37444,0.37317,0.37178,0.37038,0.36898,0.36756,0.36607,0.3646,0.36304,0.36159,0.36006,0.35868,0.35724,0.35593,0.35463,0.35342,0.35233,0.35131,0.35039,0.34952,0.34877,0.348,0.34744,0.34685,0.34641,0.34593,0.34549,0.34511,0.34474,0.34443,0.34408,0.34381,0.34353,0.34326,0.34293,0.34261,0.34229,0.34185,0.34143,0.34087,0.3403,0.33963,0.33889,0.33805,0.33707,0.33606,0.3349,0.33366,0.33227,0.33074,0.32918,0.32744,0.32572,0.32384,0.3219,0.31999,0.31794,0.31597,0.3139,0.31184,0.30988,0.3078,0.30585,0.30385,0.30188,0.30001,0.29809,0.29627,0.29447,0.29266,0.291,0.28927,0.28768,0.28612,0.28459,0.28319,0.28179,0.28051,0.2793,0.27816,0.27719,0.27629,0.27556,0.27494,0.2744,0.27402,0.27374,0.27359,0.27363,0.27386,0.27437,0.27521,0.27636,0.27795,0.27993,0.28225,0.28505,0.28799,0.2912,0.29446,0.29757,0.30063,0.30335,0.30588,0.30797,0.30967,0.31103,0.31195,0.31268,0.31323,0.31368,0.31413,0.31457,0.31502,0.31549,0.31593,0.31635,0.31667,0.31692,0.31705,0.31717,0.31736,0.31766,0.31813,0.31876,0.31955,0.32045,0.32136,0.32223,0.32297,0.32367,0.3242,0.32467,0.32506,0.32533,0.32556,0.32571,0.32584,0.32593,0.32601,0.32604,0.32599,0.3258,0.32544,0.32488,0.32408,0.32312,0.32198,0.32069,0.3193,0.3178,0.31631,0.31474,0.31325,0.31173,0.31024,0.30888,0.30755,0.30635,0.30522,0.3042,0.30323,0.30232,0.30139,0.30038,0.29936,0.29824,0.29702,0.29581,0.29448,0.29318,0.29182,0.29038,0.28893,0.28748,0.28612,0.28486,0.28385,0.28297,0.28236,0.28204,0.282,0.28226,0.28287,0.28378,0.28509,0.28687,0.28904,0.29172,0.29479,0.29843,0.30257,0.30722,0.3128,0.31904,0.32646,0.33471,0.34433,0.35508,0.3666,0.37952,0.39274,0.40712,0.4218,0.43681,0.45208,0.46653,0.48088,0.49395,0.50663,0.51812,0.52868,0.5387,0.54722,0.55503,0.56176,0.56738,0.57189,0.57537,0.57778,0.5789,0.57915,0.57835,0.57651,0.57403,0.57087,0.5672,0.56344,0.55924,0.55504,0.55067,0.54633,0.54192,0.5375,0.53321,0.52882,0.52464,0.52034,0.51609,0.51192,0.50774,0.50363,0.4995,0.49552,0.49145,0.48758,0.48373,0.47989,0.47631,0.47278,0.46947,0.46629,0.46352,0.46083,0.45851,0.4566,0.45487,0.45357,0.45266,0.45209,0.45184,0.45215,0.45277,0.45375,0.45514,0.45693,0.45905,0.46159,0.46435,0.46737,0.47072,0.47418,0.47784,0.48156,0.48547,0.48928,0.49332,0.49717,0.50105,0.50484,0.50844,0.51203,0.5154,0.51867,0.52162,0.52459,0.52736,0.52995,0.53253,0.53497,0.53724,0.53939,0.54148,0.54335,0.54523,0.54688,0.54838,0.54979,0.55108,0.55217,0.55311,0.55405,0.55478,0.55535,0.55579,0.55611,0.5562,0.55621,0.55611,0.55579,0.55551,0.55509,0.55439,0.55358,0.55274,0.55177,0.55052,0.54927,0.54777,0.54616,0.54452,0.54284,0.54117,0.53926,0.53741,0.53551,0.53356,0.53126,0.52906,0.52673,0.52434,0.52209,0.51986,0.51764,0.51536,0.51324,0.51105,0.50884,0.50661,0.50447,0.50226,0.49998,0.49774,0.4955,0.49316,0.49083,0.48857,0.48622,0.48393,0.48162,0.4794,0.47719,0.47506,0.47288,0.47085,0.46887,0.46699,0.4651,0.46327,0.46173,0.46012,0.45862,0.45729,0.45613,0.45512,0.45427,0.45369,0.45344,0.45351,0.45392,0.45475,0.4561,0.45794,0.46018,0.46285,0.46633,0.47025,0.47486,0.47959,0.48507,0.49069,0.49677,0.50267,0.50894,0.51505,0.52132,0.52711,0.53297,0.53883,0.54471,0.55059,0.55637,0.56201,0.56732,0.57178,0.57499,0.57705,0.57799,0.57817,0.57774,0.57722,0.57724,0.5779,0.57929,0.5813,0.58358,0.58609,0.58838,0.59027,0.59149,0.59218,0.59253,0.5925,0.59222,0.59171,0.59113,0.59058,0.58994,0.58896,0.58802,0.58707,0.58644,0.5858,0.58538,0.58501,0.58464,0.58418,0.58348,0.5824,0.58107,0.57961,0.57845,0.57746,0.57691,0.57654,0.57641,0.57651,0.57664,0.57666,0.57673,0.57657,0.57657,0.57649,0.57639,0.57631,0.57644,0.57647,0.57683,0.57743,0.57838,0.57944,0.58094,0.5827,0.58475,0.58705,0.58974,0.59268,0.59587,0.59921,0.60257,0.60609,0.60964,0.61331,0.61691,0.62071,0.62459,0.62829,0.63202,0.63575,0.63974,0.64368,0.64768,0.65204,0.65623,0.66058,0.66478,0.66911,0.67306,0.6771,0.6809,0.6848,0.68837,0.69224,0.69594,0.69947,0.70303,0.70637,0.70963,0.71291,0.71574,0.7184,0.72103,0.72332,0.72545,0.72726,0.72849,0.72945,0.73052,0.73114,0.73137,0.73135,0.73133,0.73094,0.73059
0.046504,0.046349,0.04623,0.046205,0.046183,0.046192,0.046329,0.046497,0.046735,0.047097,0.047586,0.048299,0.049155,0.050286,0.051732,0.053413,0.055436,0.057746,0.060263,0.063113,0.066054,0.069216,0.07261,0.075939,0.079444,0.082985,0.086358,0.089836,0.09309,0.096208,0.099299,0.10211,0.1048,0.10739,0.1097,0.11206,0.11432,0.11648,0.11877,0.12093,0.12315,0.12536,0.12734,0.12935,0.13114,0.13271,0.13412,0.13522,0.13612,0.13673,0.13707,0.13717,0.13696,0.13651,0.13574,0.13475,0.13343,0.13185,0.13015,0.12822,0.12623,0.12422,0.12218,0.12022,0.11832,0.11649,0.11484,0.11326,0.1118,0.11054,0.10936,0.10833,0.1074,0.10657,0.10587,0.10521,0.10463,0.10412,0.10364,0.1032,0.10278,0.10238,0.102,0.10161,0.1012,0.10078,0.10031,0.099858,0.099357,0.098833,0.098305,0.097743,0.097216,0.09669,0.096197,0.095755,0.095367,0.095057,0.094812,0.094657,0.094599,0.094623,0.094771,0.095014,0.095386,0.09589,0.096525,0.097301,0.098255,0.09932,0.10061,0.10198,0.1036,0.10539,0.10728,0.10939,0.11163,0.114,0.11658,0.11915,0.12193,0.12481,0.12767,0.13067,0.13364,0.13667,0.13975,0.14265,0.14559,0.1484,0.15104,0.15361,0.15599,0.15834,0.16061,0.16276,0.16499,0.16725,0.16962,0.17231,0.17512,0.17837,0.18194,0.18574,0.19006,0.1947,0.19989,0.20567,0.21169,0.21845,0.22564,0.23306,0.24122,0.24941,0.25814,0.26708,0.27577,0.28483,0.29358,0.3022,0.31082,0.31871,0.32651,0.33375,0.3404,0.34664,0.3521,0.35707,0.36159,0.36525,0.36862,0.37137,0.37378,0.37581,0.37745,0.37888,0.38006,0.381,0.38184,0.38246,0.38299,0.38336,0.38359,0.38368,0.38363,0.38339,0.38303,0.38252,0.38185,0.38104,0.3801,0.37903,0.37793,0.37671,0.3754,0.37414,0.37273,0.3714,0.37,0.36859,0.36724,0.36588,0.36453,0.36319,0.36185,0.36056,0.35927,0.35805,0.35683,0.35564,0.35453,0.35344,0.35245,0.35151,0.35064,0.34982,0.34907,0.34836,0.34776,0.34718,0.34673,0.34626,0.3458,0.34542,0.34505,0.34474,0.34439,0.3441,0.34381,0.34349,0.34319,0.34283,0.3425,0.34206,0.3416,0.34106,0.34046,0.33977,0.339,0.33816,0.33717,0.33612,0.33498,0.33373,0.33233,0.33079,0.32924,0.32749,0.32575,0.32389,0.32192,0.31998,0.31793,0.31595,0.3139,0.31183,0.30983,0.30777,0.30581,0.3038,0.30183,0.29995,0.29802,0.29618,0.29438,0.29259,0.2909,0.28919,0.28759,0.28601,0.28445,0.28302,0.2816,0.28032,0.27907,0.27791,0.2769,0.27596,0.27517,0.27449,0.27392,0.27349,0.27317,0.27298,0.27297,0.27318,0.27365,0.27446,0.27556,0.27711,0.27903,0.28129,0.28403,0.28691,0.29007,0.29324,0.2963,0.29928,0.30188,0.3043,0.3063,0.30789,0.30915,0.31,0.31064,0.31113,0.31151,0.31192,0.31231,0.31273,0.31317,0.31363,0.31406,0.31443,0.31476,0.31503,0.31525,0.31552,0.3159,0.31644,0.31712,0.31795,0.31883,0.31975,0.32062,0.32134,0.32199,0.32251,0.32293,0.32331,0.32359,0.32385,0.32403,0.32421,0.32436,0.32447,0.32454,0.32453,0.32434,0.32399,0.32343,0.32265,0.32171,0.32055,0.31926,0.31786,0.31637,0.31489,0.31332,0.31182,0.31032,0.30886,0.3075,0.30621,0.30504,0.30394,0.30296,0.30204,0.30116,0.3003,0.29936,0.29835,0.29723,0.29605,0.29482,0.29351,0.29221,0.29084,0.28946,0.28806,0.28661,0.28527,0.28394,0.28287,0.28203,0.28139,0.28104,0.28101,0.28126,0.2819,0.28288,0.28418,0.28594,0.28812,0.29085,0.294,0.29775,0.30188,0.30644,0.31183,0.31787,0.32508,0.33321,0.34267,0.35326,0.36463,0.37735,0.39032,0.40449,0.41895,0.43379,0.44898,0.46335,0.47761,0.49058,0.50313,0.5145,0.52512,0.53511,0.54368,0.55165,0.55837,0.56412,0.56875,0.57224,0.57472,0.57596,0.57625,0.57551,0.5738,0.57134,0.56824,0.56466,0.56083,0.5566,0.5525,0.54809,0.54367,0.53935,0.5349,0.53062,0.52623,0.52204,0.5177,0.51355,0.50935,0.50514,0.50111,0.49694,0.49301,0.48896,0.48504,0.48114,0.47741,0.47376,0.4702,0.46697,0.46381,0.46094,0.45832,0.45598,0.45404,0.45234,0.45104,0.45008,0.44953,0.44931,0.44954,0.45017,0.45114,0.45244,0.45425,0.45632,0.45878,0.46152,0.46457,0.46777,0.47121,0.47487,0.4785,0.4824,0.4862,0.49016,0.49401,0.49788,0.50166,0.50531,0.50889,0.51216,0.51546,0.51846,0.52138,0.52419,0.52687,0.52935,0.53179,0.53416,0.53621,0.53834,0.54029,0.54212,0.54377,0.54538,0.5468,0.54808,0.5493,0.55023,0.55108,0.55185,0.55248,0.55287,0.55317,0.55336,0.55333,0.55319,0.55302,0.55265,0.55212,0.55149,0.55076,0.54981,0.54884,0.54766,0.54634,0.5449,0.5434,0.54183,0.54011,0.53841,0.53653,0.53465,0.53266,0.53058,0.52843,0.52614,0.52378,0.52147,0.51926,0.51687,0.51469,0.51246,0.51036,0.5081,0.50604,0.50384,0.50169,0.4994,0.49717,0.49486,0.49256,0.49023,0.48796,0.48574,0.48334,0.48107,0.47879,0.4766,0.47431,0.47216,0.47008,0.46817,0.46616,0.46423,0.46242,0.46072,0.45907,0.45734,0.45592,0.45459,0.45336,0.45226,0.45142,0.45081,0.45054,0.45048,0.45077,0.45159,0.4528,0.45446,0.45665,0.45928,0.46263,0.46637,0.47078,0.47556,0.48095,0.48648,0.4925,0.49844,0.50464,0.51074,0.51684,0.52278,0.52875,0.53456,0.54051,0.54632,0.55236,0.5581,0.56329,0.56782,0.57118,0.57342,0.57436,0.57435,0.57381,0.57341,0.57335,0.5739,0.57502,0.57698,0.57926,0.58179,0.58414,0.58613,0.58755,0.58842,0.5886,0.58851,0.58828,0.58791,0.58739,0.58665,0.58577,0.58482,0.58389,0.58293,0.58214,0.58142,0.58093,0.58055,0.58027,0.57974,0.57895,0.57792,0.57666,0.57531,0.57413,0.57313,0.57251,0.5723,0.5722,0.57214,0.5722,0.57235,0.57241,0.57234,0.5723,0.57216,0.57195,0.57205,0.57203,0.57214,0.5725,0.57316,0.57403,0.57524,0.57668,0.57839,0.58051,0.58293,0.58566,0.58856,0.59173,0.59506,0.59853,0.60209,0.60572,0.60945,0.61305,0.61688,0.62045,0.62421,0.62794,0.63181,0.63574,0.63983,0.64376,0.6481,0.65219,0.65648,0.66072,0.6649,0.66897,0.6732,0.67685,0.68101,0.68455,0.68819,0.69186,0.69556,0.69908,0.70258,0.70584,0.70901,0.71194,0.71475,0.71726,0.71948,0.72156,0.72324,0.72458,0.72575,0.72671,0.72748,0.72785,0.72791,0.72779,0.7275,0.72703
0.046958,0.046817,0.046663,0.046601,0.046599,0.046639,0.046701,0.046817,0.047045,0.047419,0.047871,0.048529,0.049338,0.050438,0.051804,0.05338,0.055311,0.05748,0.059844,0.062534,0.065313,0.068273,0.071453,0.074589,0.077938,0.081278,0.084463,0.087774,0.090899,0.093915,0.096875,0.099581,0.10223,0.10477,0.10702,0.10933,0.11157,0.11373,0.11597,0.11808,0.12027,0.12241,0.12435,0.12629,0.12802,0.12953,0.13085,0.1319,0.13272,0.13329,0.13357,0.13361,0.13338,0.13289,0.13211,0.13109,0.12978,0.12823,0.12658,0.12471,0.12277,0.12085,0.11889,0.117,0.11519,0.11343,0.11185,0.11032,0.10892,0.10771,0.10656,0.10557,0.10466,0.10386,0.10318,0.10254,0.10198,0.10149,0.10102,0.10059,0.10019,0.099798,0.099444,0.099062,0.098666,0.098271,0.097839,0.097387,0.096879,0.09637,0.095854,0.095297,0.094759,0.094238,0.093737,0.093301,0.092892,0.092568,0.09231,0.09214,0.092051,0.092059,0.09218,0.092377,0.092726,0.093183,0.093773,0.094498,0.095392,0.096383,0.097608,0.098899,0.10044,0.10216,0.10397,0.10599,0.10816,0.11044,0.11296,0.11547,0.1182,0.12105,0.12386,0.12686,0.12983,0.13287,0.13596,0.13885,0.1418,0.1446,0.14719,0.14972,0.15202,0.15427,0.15645,0.15852,0.16068,0.16287,0.16518,0.16778,0.17049,0.17358,0.17696,0.18057,0.18469,0.18914,0.19412,0.19972,0.20555,0.21209,0.21905,0.22634,0.23425,0.2422,0.2507,0.25942,0.26792,0.27679,0.28534,0.29382,0.30226,0.31002,0.31765,0.32481,0.33135,0.33752,0.34293,0.34784,0.3522,0.35581,0.35906,0.36175,0.36407,0.36607,0.36768,0.36909,0.37025,0.3712,0.37204,0.37267,0.37323,0.3736,0.37388,0.37397,0.37397,0.37377,0.37346,0.37296,0.37236,0.37162,0.37081,0.36987,0.36895,0.3679,0.36681,0.36572,0.36452,0.36332,0.3621,0.36084,0.35957,0.35828,0.35696,0.35566,0.35425,0.35296,0.35155,0.35023,0.34894,0.34769,0.34648,0.34538,0.34435,0.3434,0.34247,0.34168,0.34092,0.34025,0.33966,0.33914,0.33868,0.33823,0.33779,0.33744,0.33711,0.3368,0.3365,0.33624,0.33596,0.33571,0.33542,0.33513,0.33481,0.33444,0.33402,0.33352,0.33294,0.3323,0.33159,0.33076,0.32987,0.32887,0.32774,0.3265,0.32513,0.32364,0.32211,0.32039,0.31867,0.31684,0.31492,0.31301,0.31101,0.30905,0.30702,0.305,0.30304,0.301,0.29908,0.29713,0.29518,0.29334,0.29144,0.28967,0.28788,0.28612,0.28446,0.28277,0.28119,0.27964,0.27811,0.27673,0.27532,0.27404,0.27283,0.27169,0.27069,0.26977,0.26901,0.26836,0.2678,0.2674,0.26709,0.26693,0.26696,0.2672,0.26771,0.26858,0.26968,0.27125,0.27317,0.27541,0.27813,0.28094,0.28401,0.28707,0.28998,0.2928,0.29524,0.29746,0.29927,0.30066,0.30172,0.30242,0.3029,0.3033,0.30359,0.30393,0.30428,0.30468,0.30513,0.30555,0.30598,0.30639,0.30674,0.30705,0.30736,0.30775,0.30824,0.30884,0.30954,0.31036,0.31121,0.31207,0.31289,0.31351,0.31406,0.31447,0.3148,0.31509,0.31529,0.31548,0.31564,0.3158,0.31596,0.3161,0.3162,0.31622,0.31609,0.31577,0.31528,0.31451,0.31361,0.31251,0.31123,0.30988,0.30843,0.30699,0.3055,0.30406,0.30261,0.30119,0.29986,0.2986,0.29748,0.29644,0.2955,0.29464,0.29382,0.29302,0.29213,0.29116,0.2901,0.28894,0.28778,0.28653,0.28529,0.28399,0.28261,0.2812,0.2797,0.27833,0.27701,0.27595,0.27506,0.27441,0.27406,0.274,0.27423,0.2748,0.27568,0.27699,0.27878,0.28098,0.2837,0.28664,0.29007,0.29385,0.29809,0.30319,0.309,0.31598,0.32385,0.33301,0.34324,0.35424,0.36654,0.37913,0.3929,0.40694,0.42134,0.43599,0.44981,0.4635,0.47601,0.48812,0.49914,0.50938,0.51906,0.52733,0.53501,0.54148,0.54701,0.5514,0.55481,0.55717,0.55831,0.55852,0.55774,0.55601,0.55356,0.55053,0.54696,0.5432,0.53919,0.53513,0.53095,0.52674,0.52252,0.51827,0.51418,0.50997,0.50596,0.50186,0.4979,0.49395,0.48993,0.48606,0.48212,0.47832,0.47447,0.47078,0.46704,0.46342,0.45997,0.45661,0.45349,0.45045,0.44773,0.44522,0.44304,0.44118,0.43961,0.43844,0.43758,0.43708,0.437,0.43723,0.4379,0.43894,0.44029,0.44213,0.44421,0.44674,0.44947,0.4525,0.45579,0.45924,0.46286,0.46651,0.47037,0.47419,0.47817,0.48199,0.4859,0.48967,0.4932,0.49675,0.50001,0.50314,0.50611,0.50899,0.51165,0.51426,0.51675,0.51907,0.52136,0.52348,0.52551,0.52737,0.52916,0.53075,0.53225,0.53365,0.53486,0.53599,0.53699,0.53788,0.53857,0.53919,0.53961,0.53987,0.54004,0.54007,0.5399,0.53974,0.53944,0.53898,0.53836,0.53768,0.53683,0.53592,0.53479,0.53359,0.53223,0.53078,0.52926,0.52763,0.52598,0.52417,0.52242,0.5204,0.51844,0.51633,0.51422,0.512,0.50979,0.50771,0.50552,0.50343,0.50123,0.49919,0.49706,0.49497,0.49288,0.4908,0.48862,0.48646,0.48428,0.4821,0.47983,0.47758,0.47539,0.47312,0.47093,0.46862,0.46651,0.46436,0.46228,0.4602,0.45825,0.45633,0.4544,0.4526,0.45087,0.44932,0.44764,0.44619,0.44481,0.44364,0.44256,0.44172,0.44109,0.44088,0.44079,0.44108,0.44183,0.44302,0.44465,0.44683,0.44939,0.45266,0.45625,0.46054,0.46515,0.47039,0.47579,0.48158,0.48727,0.49323,0.49914,0.50505,0.51059,0.51631,0.52188,0.5275,0.53312,0.53875,0.54431,0.54929,0.55357,0.55657,0.5585,0.55924,0.55916,0.55844,0.55783,0.55754,0.55793,0.55898,0.5607,0.56276,0.56507,0.56723,0.56913,0.57051,0.5715,0.57198,0.57212,0.57202,0.57168,0.57123,0.57064,0.56981,0.56881,0.56788,0.5669,0.56607,0.56529,0.56465,0.5641,0.56364,0.56299,0.56218,0.56108,0.55982,0.55853,0.5575,0.55663,0.55605,0.55586,0.55572,0.55575,0.55579,0.55585,0.55584,0.55578,0.55562,0.55545,0.55533,0.55522,0.55525,0.55532,0.55579,0.55629,0.55715,0.5582,0.55961,0.5612,0.56324,0.56566,0.56829,0.57116,0.57429,0.57754,0.5809,0.5844,0.58796,0.59167,0.59518,0.59886,0.60237,0.60607,0.6096,0.61346,0.61723,0.62128,0.62519,0.62937,0.63333,0.63764,0.64179,0.64596,0.64991,0.65382,0.65761,0.66131,0.66491,0.66842,0.67205,0.67556,0.67897,0.68226,0.68554,0.68864,0.69159,0.69424,0.69676,0.69876,0.70064,0.7025,0.70382,0.70484,0.70566,0.70638,0.70674,0.70686,0.7066,0.70612,0.70597
0.045461,0.045321,0.045205,0.045159,0.045152,0.045188,0.0453,0.045463,0.045664,0.046025,0.046476,0.047113,0.047907,0.048964,0.050277,0.051816,0.053656,0.055764,0.058047,0.060627,0.063315,0.066193,0.069257,0.072302,0.075525,0.078746,0.081825,0.085006,0.088021,0.090918,0.093775,0.096392,0.098886,0.10131,0.10345,0.10562,0.10775,0.10976,0.11188,0.11391,0.11597,0.11803,0.11988,0.12173,0.1234,0.12483,0.12613,0.12714,0.12793,0.1285,0.12878,0.12884,0.12864,0.1282,0.12748,0.12649,0.12526,0.12374,0.12215,0.12031,0.1184,0.11651,0.11456,0.1127,0.1109,0.10916,0.10761,0.10609,0.10471,0.10351,0.10238,0.1014,0.10052,0.099734,0.099051,0.098423,0.097865,0.097397,0.096935,0.096519,0.096119,0.095737,0.095392,0.095009,0.094639,0.094247,0.093826,0.093392,0.092917,0.092436,0.091928,0.091399,0.090869,0.090386,0.089892,0.089455,0.089065,0.088745,0.088506,0.088324,0.088256,0.088247,0.088358,0.088545,0.088878,0.089305,0.08986,0.090524,0.091393,0.092333,0.093496,0.094717,0.096187,0.097815,0.099525,0.10146,0.10352,0.1057,0.10807,0.11046,0.11306,0.11577,0.11847,0.12134,0.12418,0.12712,0.13008,0.13289,0.1357,0.13838,0.14085,0.14327,0.14547,0.14761,0.14969,0.15165,0.1537,0.15583,0.15806,0.16059,0.16321,0.1662,0.16946,0.17293,0.17691,0.18119,0.18596,0.1913,0.19688,0.20319,0.2099,0.21691,0.22463,0.23232,0.24055,0.24907,0.25735,0.26605,0.27444,0.28278,0.29107,0.29874,0.30631,0.31338,0.31987,0.326,0.33138,0.33628,0.34067,0.34427,0.34752,0.3502,0.35253,0.35452,0.35613,0.35753,0.35872,0.35966,0.36053,0.36119,0.36175,0.36214,0.36238,0.3625,0.36248,0.36228,0.36193,0.36147,0.36088,0.36016,0.35938,0.35849,0.3576,0.3566,0.35552,0.35451,0.35331,0.35214,0.3509,0.34961,0.34837,0.34706,0.34572,0.34437,0.34298,0.34163,0.34025,0.33889,0.33758,0.33629,0.33513,0.33394,0.33291,0.3319,0.33097,0.33017,0.32936,0.32871,0.32811,0.32756,0.32703,0.32661,0.32615,0.32577,0.32541,0.3251,0.3248,0.3245,0.32428,0.32398,0.3237,0.32342,0.32311,0.32274,0.3223,0.32183,0.32127,0.32066,0.31994,0.31914,0.31822,0.31722,0.31609,0.31486,0.31349,0.31201,0.31049,0.30881,0.3071,0.30526,0.30336,0.30144,0.29945,0.29752,0.29553,0.29352,0.29157,0.28959,0.28769,0.28576,0.28386,0.28205,0.28019,0.27843,0.27668,0.27495,0.27333,0.27168,0.27014,0.26862,0.26714,0.26577,0.26442,0.26318,0.26201,0.26091,0.25995,0.25908,0.25836,0.25775,0.25723,0.25686,0.25661,0.2565,0.25654,0.25678,0.25731,0.25816,0.2593,0.26086,0.26278,0.26505,0.26773,0.27053,0.27363,0.2767,0.27964,0.28251,0.285,0.2873,0.28919,0.29068,0.29186,0.29266,0.29323,0.29368,0.29405,0.29444,0.29482,0.29525,0.29568,0.29612,0.29654,0.29691,0.29721,0.29744,0.29767,0.29792,0.29828,0.29877,0.29939,0.30016,0.30097,0.30178,0.30257,0.30321,0.30376,0.30421,0.30454,0.30483,0.30503,0.30521,0.30535,0.30547,0.30554,0.30562,0.30565,0.30561,0.30544,0.30506,0.30456,0.30377,0.30284,0.30172,0.30049,0.29914,0.29771,0.29629,0.29481,0.29337,0.29195,0.29054,0.28926,0.28802,0.28691,0.28588,0.28497,0.28415,0.28335,0.28255,0.28168,0.28073,0.27967,0.27854,0.27738,0.27616,0.27495,0.27367,0.27231,0.27091,0.26946,0.2681,0.26679,0.26572,0.26483,0.26418,0.26382,0.26373,0.26396,0.26453,0.26542,0.26675,0.26853,0.27069,0.27331,0.27619,0.27951,0.2832,0.28734,0.29234,0.29801,0.30488,0.31266,0.32174,0.33192,0.34287,0.3552,0.36785,0.38162,0.39575,0.41028,0.42508,0.43905,0.45297,0.46567,0.47801,0.48921,0.49966,0.50948,0.51794,0.52578,0.53238,0.53799,0.54249,0.54591,0.5483,0.54954,0.54972,0.54889,0.54718,0.54469,0.54158,0.53796,0.53417,0.53003,0.52596,0.52164,0.51737,0.51308,0.50877,0.50459,0.50035,0.49627,0.4921,0.48808,0.48402,0.47996,0.47603,0.47201,0.4682,0.46425,0.46053,0.45676,0.45305,0.44959,0.44613,0.44297,0.43991,0.43715,0.43461,0.4324,0.43053,0.4289,0.42775,0.42687,0.42637,0.42623,0.42651,0.4272,0.42822,0.42962,0.43141,0.4335,0.43605,0.43876,0.44184,0.44517,0.44858,0.45229,0.456,0.45991,0.46376,0.46784,0.47169,0.47563,0.47943,0.48306,0.48668,0.48995,0.49319,0.49618,0.49906,0.50176,0.50438,0.5069,0.50924,0.51155,0.51375,0.51577,0.51762,0.51945,0.52107,0.52258,0.52401,0.52525,0.52636,0.52734,0.52823,0.52895,0.5296,0.53006,0.53024,0.53043,0.53047,0.53034,0.53008,0.52981,0.52939,0.52873,0.52806,0.52725,0.52624,0.52514,0.52388,0.52254,0.52104,0.51948,0.51784,0.51613,0.51431,0.51252,0.51054,0.50856,0.5064,0.50429,0.50209,0.49988,0.49772,0.49548,0.49338,0.49119,0.48909,0.48686,0.48477,0.48263,0.48051,0.47824,0.47611,0.47391,0.47162,0.4694,0.46713,0.46486,0.46253,0.46025,0.45797,0.45582,0.45354,0.45143,0.44938,0.44738,0.44541,0.44349,0.44169,0.43991,0.43828,0.43665,0.43516,0.43384,0.43259,0.43153,0.43072,0.43006,0.42975,0.42966,0.43,0.43081,0.43198,0.43365,0.4358,0.4385,0.44183,0.44556,0.44993,0.45449,0.45979,0.46526,0.47114,0.47706,0.48309,0.48906,0.49511,0.50083,0.50661,0.51229,0.51809,0.52387,0.52965,0.53524,0.54034,0.54473,0.54784,0.54985,0.55048,0.55047,0.54989,0.5493,0.54906,0.5495,0.55058,0.55231,0.55448,0.55686,0.55918,0.56107,0.56236,0.5634,0.56375,0.56375,0.56355,0.56317,0.56272,0.56198,0.56122,0.56014,0.55916,0.55813,0.55739,0.5567,0.55612,0.55559,0.55509,0.55452,0.55372,0.55269,0.55138,0.55008,0.54898,0.54807,0.54744,0.54712,0.54702,0.54698,0.54709,0.54714,0.54715,0.54711,0.54693,0.5468,0.54663,0.54644,0.54651,0.5466,0.54697,0.54756,0.54837,0.54941,0.5508,0.55256,0.55467,0.55702,0.55963,0.56259,0.56576,0.56903,0.57243,0.576,0.57973,0.58336,0.58697,0.59065,0.59427,0.59796,0.60164,0.60554,0.60947,0.61343,0.6174,0.62162,0.6258,0.63005,0.63429,0.63855,0.64257,0.64665,0.65054,0.65431,0.65795,0.66167,0.66504,0.66874,0.67211,0.67551,0.67894,0.68218,0.68503,0.68767,0.69023,0.69244,0.69447,0.69609,0.69737,0.69867,0.69948,0.70008,0.70054,0.7006,0.70046,0.70017,0.69968
0.053948,0.053786,0.05365,0.053613,0.053576,0.053623,0.053759,0.053915,0.054199,0.054589,0.055134,0.055909,0.056855,0.058158,0.059772,0.061657,0.063956,0.066523,0.069373,0.072595,0.075902,0.079483,0.083284,0.087031,0.090997,0.094953,0.09877,0.10271,0.1064,0.11,0.11348,0.11666,0.11975,0.12269,0.12532,0.128,0.13058,0.13308,0.13565,0.13811,0.14064,0.14311,0.14538,0.14763,0.14966,0.15141,0.15296,0.15421,0.15518,0.15587,0.15623,0.15632,0.1561,0.15556,0.15469,0.15352,0.15203,0.15022,0.14831,0.14612,0.14384,0.14158,0.13926,0.13706,0.1349,0.13283,0.13098,0.12918,0.12753,0.12611,0.12475,0.12358,0.12253,0.12158,0.12078,0.12002,0.11937,0.11879,0.11823,0.11774,0.11727,0.11681,0.11638,0.11594,0.11549,0.11503,0.11452,0.11402,0.11346,0.11287,0.11227,0.11164,0.11103,0.11044,0.10988,0.10938,0.10894,0.10857,0.10829,0.10809,0.10804,0.10806,0.10822,0.10849,0.1089,0.10948,0.11018,0.11107,0.11212,0.11334,0.11478,0.11633,0.11813,0.12015,0.12227,0.12465,0.12718,0.12985,0.13277,0.13568,0.13883,0.14208,0.1453,0.14869,0.15202,0.1554,0.15882,0.162,0.16524,0.16832,0.17122,0.17407,0.17673,0.17936,0.18197,0.18444,0.18703,0.18963,0.19232,0.19529,0.19836,0.20192,0.20589,0.21016,0.21503,0.22028,0.22608,0.23251,0.2391,0.24659,0.25456,0.26283,0.27192,0.28096,0.29057,0.3004,0.30994,0.31985,0.32935,0.33874,0.34802,0.35648,0.36486,0.3726,0.37971,0.38633,0.39214,0.39737,0.40208,0.40595,0.40945,0.41233,0.41481,0.41695,0.41868,0.42019,0.42142,0.42245,0.4233,0.42399,0.42453,0.42494,0.42514,0.42525,0.42513,0.42488,0.42442,0.4239,0.42319,0.42241,0.42156,0.42059,0.41968,0.41865,0.41759,0.4165,0.41533,0.41409,0.41279,0.41138,0.41006,0.40845,0.40696,0.40535,0.40362,0.40203,0.4003,0.39869,0.39704,0.3955,0.39401,0.39268,0.3914,0.39025,0.38914,0.38821,0.38734,0.38655,0.38597,0.38534,0.38486,0.38435,0.38389,0.3835,0.38308,0.38276,0.38241,0.38212,0.3818,0.38147,0.38119,0.38084,0.38049,0.38007,0.37962,0.3791,0.37847,0.37778,0.37698,0.37607,0.37506,0.37394,0.37272,0.37137,0.36988,0.36828,0.36658,0.36473,0.36287,0.36084,0.35878,0.35667,0.35453,0.35241,0.35022,0.34802,0.34586,0.34367,0.34156,0.33942,0.33733,0.33529,0.33324,0.33131,0.32934,0.32744,0.32561,0.32379,0.32208,0.32037,0.31875,0.31722,0.31571,0.31435,0.31302,0.31182,0.31078,0.30982,0.30906,0.30841,0.30786,0.30748,0.3072,0.30706,0.30714,0.30742,0.30804,0.30902,0.31034,0.31217,0.31437,0.31697,0.32005,0.32326,0.32678,0.3303,0.33364,0.33689,0.33978,0.34246,0.34468,0.34644,0.34786,0.34884,0.34958,0.35016,0.35065,0.35115,0.35163,0.35214,0.35266,0.35316,0.35359,0.35397,0.35424,0.3544,0.35454,0.35471,0.35501,0.3555,0.35614,0.35698,0.3579,0.35882,0.35973,0.36049,0.36114,0.36171,0.36214,0.36251,0.36277,0.36297,0.36308,0.36319,0.36325,0.36332,0.36331,0.3632,0.36298,0.36252,0.36191,0.36103,0.36001,0.35874,0.35739,0.35586,0.35428,0.35272,0.35104,0.34944,0.34783,0.34623,0.34477,0.34334,0.34207,0.34087,0.33979,0.33878,0.33777,0.33679,0.33567,0.33452,0.33327,0.33196,0.33063,0.32922,0.32778,0.32623,0.32462,0.32298,0.32135,0.31989,0.3185,0.31738,0.31648,0.31582,0.3155,0.3155,0.3158,0.31653,0.31762,0.31914,0.32116,0.32353,0.32635,0.3295,0.33328,0.33768,0.3427,0.34883,0.3556,0.36365,0.3726,0.38283,0.39419,0.40644,0.42005,0.43391,0.44893,0.46403,0.47948,0.49511,0.50986,0.52447,0.53775,0.55062,0.56222,0.5729,0.58292,0.59147,0.59935,0.60595,0.61163,0.61612,0.61952,0.62194,0.62302,0.62319,0.62239,0.62059,0.61804,0.61491,0.61122,0.60737,0.6032,0.59903,0.59461,0.59026,0.58591,0.58139,0.57716,0.57277,0.56854,0.56425,0.56007,0.55586,0.55166,0.54759,0.54341,0.53938,0.53526,0.53135,0.52738,0.52355,0.51989,0.51622,0.51291,0.5097,0.50675,0.50406,0.50173,0.4997,0.49792,0.4967,0.4957,0.49516,0.49497,0.49519,0.49587,0.49689,0.49831,0.50014,0.50234,0.50501,0.5078,0.51102,0.51441,0.51795,0.52172,0.52554,0.5296,0.53357,0.53767,0.54168,0.54569,0.54957,0.55331,0.55688,0.56023,0.56352,0.56647,0.5694,0.57212,0.57471,0.57716,0.57952,0.58176,0.58383,0.58585,0.58767,0.58932,0.59093,0.59248,0.59382,0.59505,0.5962,0.59712,0.59795,0.59864,0.59923,0.5997,0.59995,0.60014,0.60013,0.60006,0.59978,0.59949,0.59897,0.59839,0.59769,0.59685,0.59585,0.59476,0.59347,0.59212,0.59052,0.58898,0.58736,0.58566,0.58383,0.58206,0.58007,0.57812,0.57585,0.57371,0.57141,0.56913,0.56688,0.56465,0.56258,0.56033,0.55821,0.55604,0.55391,0.55169,0.54948,0.54724,0.5451,0.5428,0.54045,0.53827,0.53593,0.53361,0.53124,0.52884,0.52651,0.52419,0.52185,0.51968,0.5175,0.51548,0.51342,0.51149,0.50965,0.50785,0.50616,0.50444,0.50299,0.50158,0.50042,0.49934,0.49857,0.49804,0.49779,0.49791,0.49836,0.49932,0.50071,0.50261,0.50503,0.50795,0.5116,0.51565,0.52044,0.52555,0.53117,0.53691,0.54315,0.54929,0.55562,0.56175,0.568,0.5739,0.58005,0.58582,0.59172,0.59756,0.6034,0.60919,0.6142,0.61846,0.62181,0.62384,0.62474,0.62466,0.62429,0.62428,0.62457,0.62535,0.6268,0.62888,0.63145,0.63406,0.63628,0.63818,0.63934,0.63989,0.63994,0.63965,0.63912,0.63853,0.63806,0.6374,0.63657,0.6356,0.6347,0.63395,0.63331,0.63286,0.63264,0.63233,0.63224,0.6319,0.63111,0.63009,0.62877,0.62723,0.62583,0.62479,0.62405,0.6238,0.62367,0.62361,0.62369,0.62379,0.62375,0.62367,0.6235,0.62346,0.62326,0.62322,0.62328,0.62348,0.62385,0.62437,0.62527,0.6263,0.62782,0.62954,0.63159,0.63391,0.63649,0.63933,0.64243,0.64561,0.64895,0.65252,0.65611,0.65942,0.66318,0.66687,0.67043,0.67408,0.67765,0.68143,0.6854,0.68941,0.69338,0.69758,0.70157,0.70583,0.70993,0.71424,0.71818,0.72211,0.72593,0.72976,0.73326,0.73709,0.74047,0.74398,0.74734,0.75071,0.75381,0.75701,0.76004,0.76262,0.76514,0.76739,0.76934,0.77083,0.77228,0.77322,0.77412,0.77465,0.77511,0.77513,0.7751,0.77468,0.77412
0.052083,0.051876,0.051773,0.051748,0.051691,0.051755,0.051884,0.052067,0.052362,0.052718,0.053267,0.05402,0.054938,0.056202,0.057773,0.059613,0.061842,0.06433,0.067103,0.070212,0.073427,0.076909,0.080595,0.084224,0.088064,0.091916,0.095623,0.09944,0.10307,0.10653,0.10992,0.113,0.11598,0.11882,0.12135,0.12396,0.12644,0.12883,0.13133,0.1337,0.13615,0.13856,0.14074,0.14293,0.14489,0.14661,0.14811,0.14931,0.15026,0.15094,0.15129,0.15137,0.15117,0.15065,0.14982,0.14868,0.14721,0.14545,0.14358,0.14144,0.1392,0.137,0.13472,0.13256,0.13045,0.12843,0.12662,0.12485,0.12325,0.12185,0.12052,0.11936,0.11834,0.11741,0.11661,0.11588,0.11522,0.11466,0.11412,0.11363,0.11317,0.11272,0.11231,0.11187,0.11143,0.11098,0.11048,0.10997,0.10942,0.10884,0.10826,0.10765,0.10705,0.10649,0.10593,0.10545,0.10502,0.10467,0.1044,0.10422,0.10416,0.1042,0.10435,0.10461,0.10502,0.10558,0.10627,0.10713,0.10817,0.10933,0.11076,0.11226,0.11403,0.11601,0.11808,0.12042,0.12288,0.12551,0.12835,0.1312,0.13427,0.13744,0.14058,0.1439,0.14713,0.15041,0.15372,0.15682,0.15995,0.16293,0.16578,0.16859,0.17123,0.17385,0.17646,0.17894,0.18153,0.18408,0.18677,0.18969,0.19275,0.19629,0.20026,0.20451,0.20941,0.21462,0.22044,0.22685,0.2335,0.24094,0.24892,0.25723,0.26635,0.27543,0.28513,0.29502,0.30462,0.31462,0.32423,0.33369,0.34304,0.35163,0.36006,0.36787,0.37502,0.38174,0.38757,0.3929,0.39763,0.40157,0.40509,0.40799,0.41052,0.41267,0.41442,0.41594,0.41718,0.4182,0.4191,0.41975,0.4203,0.42069,0.4209,0.42096,0.42085,0.42059,0.42012,0.41955,0.41881,0.41801,0.41711,0.41613,0.41517,0.41412,0.41298,0.41188,0.41063,0.40936,0.40799,0.40652,0.4051,0.40353,0.40193,0.40028,0.3986,0.39699,0.39528,0.39368,0.39208,0.39057,0.38911,0.38777,0.38654,0.38541,0.38434,0.38342,0.38255,0.38181,0.38117,0.38057,0.38004,0.37954,0.37905,0.37863,0.37823,0.37786,0.3775,0.37717,0.37684,0.37652,0.37616,0.37582,0.37543,0.37502,0.37454,0.37399,0.37338,0.37265,0.37184,0.37094,0.36991,0.3688,0.36754,0.3662,0.36469,0.36304,0.36135,0.35947,0.35758,0.35555,0.35348,0.35142,0.34921,0.34707,0.34484,0.34263,0.34049,0.33827,0.33614,0.33401,0.33189,0.32983,0.32779,0.32581,0.32388,0.32196,0.32013,0.31832,0.3166,0.31491,0.31329,0.31175,0.31026,0.3089,0.30757,0.30639,0.30538,0.30444,0.30371,0.30309,0.30259,0.30224,0.30198,0.30188,0.30197,0.30229,0.30292,0.30393,0.30525,0.30707,0.30929,0.31187,0.31497,0.31818,0.3217,0.32522,0.32859,0.33188,0.33477,0.33748,0.33974,0.34154,0.34297,0.344,0.34477,0.34539,0.34595,0.34647,0.347,0.34755,0.34805,0.34856,0.349,0.34931,0.34957,0.3497,0.34979,0.34997,0.35023,0.35071,0.35135,0.35216,0.35308,0.35403,0.35494,0.35573,0.35642,0.35695,0.35744,0.35783,0.35806,0.35827,0.3584,0.35851,0.35858,0.35862,0.3586,0.35856,0.3583,0.35787,0.35727,0.35638,0.35539,0.35418,0.35276,0.35128,0.34969,0.34809,0.34641,0.34481,0.34316,0.34158,0.34011,0.33865,0.33738,0.33619,0.33507,0.33404,0.333,0.33195,0.33083,0.32966,0.32839,0.32707,0.3257,0.32423,0.32279,0.32121,0.31958,0.31797,0.31633,0.31488,0.31355,0.31244,0.31153,0.3109,0.31059,0.31061,0.31094,0.31165,0.31274,0.31427,0.31624,0.31854,0.32137,0.32457,0.32844,0.33301,0.33818,0.34445,0.35138,0.3596,0.36867,0.37909,0.39067,0.40306,0.41694,0.43105,0.44629,0.46169,0.47747,0.49336,0.50841,0.52333,0.53686,0.55,0.56188,0.57279,0.5829,0.59161,0.59962,0.60637,0.61213,0.61666,0.62007,0.62252,0.62365,0.62373,0.62292,0.62106,0.6184,0.61523,0.61157,0.60762,0.60334,0.59913,0.59464,0.59016,0.58571,0.58116,0.5768,0.57233,0.56803,0.56363,0.55936,0.55507,0.55077,0.54661,0.54234,0.53823,0.53405,0.53004,0.52602,0.5221,0.51835,0.51467,0.51127,0.50795,0.50506,0.50228,0.49986,0.49781,0.4961,0.49473,0.49373,0.4932,0.49298,0.49322,0.49389,0.49493,0.49634,0.49826,0.50047,0.50313,0.50602,0.50926,0.51271,0.51631,0.52014,0.52402,0.52812,0.53216,0.53631,0.54032,0.54442,0.54838,0.5521,0.55578,0.55919,0.56247,0.56553,0.56849,0.5712,0.5738,0.57637,0.57868,0.58099,0.58311,0.58519,0.58706,0.58871,0.59032,0.59187,0.59326,0.59453,0.59566,0.59659,0.59749,0.59821,0.59884,0.59925,0.59952,0.59967,0.59969,0.59955,0.59939,0.59901,0.59856,0.59793,0.59721,0.59633,0.59533,0.59418,0.59293,0.59152,0.59001,0.58839,0.58675,0.58506,0.58319,0.58135,0.57935,0.57734,0.57506,0.57284,0.57053,0.56815,0.56591,0.56359,0.56149,0.55927,0.55706,0.5549,0.55273,0.55052,0.54831,0.54603,0.54388,0.54152,0.53919,0.53693,0.53461,0.53229,0.52979,0.5275,0.52511,0.52285,0.52053,0.51836,0.51623,0.51424,0.51217,0.51019,0.50836,0.50657,0.50484,0.50315,0.50171,0.50033,0.49913,0.49809,0.49736,0.49683,0.49661,0.49673,0.49729,0.49823,0.49972,0.50176,0.50431,0.50731,0.51101,0.51514,0.51999,0.52513,0.53089,0.53672,0.54296,0.54916,0.55554,0.56171,0.56795,0.57395,0.57997,0.58587,0.59172,0.59754,0.60345,0.60914,0.61425,0.61861,0.62179,0.6239,0.62484,0.62485,0.62447,0.62419,0.62448,0.62524,0.62676,0.62889,0.63132,0.63399,0.63644,0.63832,0.63949,0.64013,0.64028,0.64012,0.63977,0.63923,0.63866,0.63795,0.63717,0.63636,0.63551,0.63467,0.63407,0.63355,0.63318,0.63306,0.63287,0.63239,0.63168,0.63067,0.6293,0.62778,0.6264,0.62542,0.6248,0.62444,0.62436,0.62425,0.62429,0.62438,0.62433,0.62429,0.62421,0.62402,0.62392,0.62387,0.62398,0.62407,0.62443,0.62501,0.62594,0.62712,0.62855,0.63026,0.63225,0.63473,0.63731,0.64027,0.64336,0.6466,0.65008,0.65363,0.65712,0.66078,0.6643,0.66818,0.67187,0.67555,0.6792,0.68316,0.68729,0.69134,0.69536,0.69962,0.70385,0.70819,0.71227,0.71659,0.72063,0.72471,0.72842,0.7325,0.73618,0.73999,0.74343,0.74703,0.75067,0.75413,0.75741,0.7606,0.76363,0.76627,0.7688,0.77124,0.77309,0.77473,0.77623,0.77727,0.77832,0.77885,0.77911,0.77945,0.77949,0.77903,0.77856
0.056716,0.056517,0.056404,0.056349,0.056309,0.056381,0.056475,0.056662,0.056973,0.057346,0.057902,0.05868,0.059612,0.06092,0.062512,0.064389,0.066656,0.069186,0.072004,0.075136,0.078368,0.081872,0.085567,0.089216,0.093059,0.096904,0.10062,0.10442,0.10805,0.11155,0.11497,0.11809,0.12109,0.12398,0.12653,0.12914,0.13165,0.13409,0.13661,0.139,0.14149,0.14391,0.14612,0.14831,0.15028,0.15198,0.15346,0.15467,0.15559,0.15624,0.15656,0.15664,0.1564,0.15585,0.15499,0.15382,0.15232,0.15051,0.14858,0.14638,0.14408,0.14181,0.13948,0.13728,0.13512,0.13306,0.1312,0.12942,0.12779,0.12638,0.12503,0.12388,0.12283,0.12189,0.12109,0.12034,0.11969,0.11911,0.11857,0.11808,0.11763,0.11717,0.11676,0.11633,0.11589,0.11545,0.11496,0.11446,0.11389,0.11333,0.11274,0.11213,0.11152,0.11096,0.11039,0.10991,0.10947,0.10912,0.10884,0.10865,0.10857,0.1086,0.10876,0.10901,0.10941,0.10996,0.11066,0.1115,0.11254,0.11369,0.11511,0.11659,0.11836,0.12031,0.12237,0.12467,0.12713,0.12971,0.13255,0.13535,0.13842,0.14156,0.14468,0.14794,0.15116,0.1544,0.15768,0.16072,0.16384,0.16681,0.16962,0.17242,0.17503,0.17766,0.18027,0.18275,0.1853,0.18785,0.19046,0.19334,0.19633,0.19984,0.20375,0.20796,0.21275,0.21785,0.22348,0.22971,0.23619,0.24345,0.25121,0.2593,0.26822,0.2771,0.28661,0.29631,0.30578,0.31562,0.32511,0.33445,0.34376,0.35224,0.36064,0.36844,0.37561,0.38232,0.3882,0.39353,0.39831,0.40229,0.40583,0.40881,0.41134,0.41356,0.41531,0.41688,0.41815,0.41922,0.42012,0.42081,0.42141,0.42181,0.42209,0.42217,0.42213,0.42186,0.4215,0.42096,0.42033,0.41955,0.41872,0.4178,0.41685,0.41586,0.41472,0.41366,0.41242,0.41119,0.40983,0.40841,0.40703,0.40548,0.40402,0.40241,0.40081,0.39921,0.3976,0.39599,0.39448,0.39298,0.39159,0.39025,0.38904,0.38794,0.38686,0.38596,0.38507,0.38434,0.38368,0.38311,0.38257,0.38206,0.38161,0.38116,0.38078,0.38038,0.38004,0.3797,0.37939,0.37906,0.37872,0.37838,0.37803,0.37762,0.37716,0.37662,0.37598,0.37526,0.37446,0.37357,0.37254,0.37144,0.37017,0.36883,0.36731,0.36568,0.36399,0.36212,0.36024,0.35821,0.35614,0.35407,0.35188,0.34974,0.34753,0.34534,0.34317,0.34097,0.33888,0.33673,0.33463,0.33263,0.33055,0.32861,0.32665,0.32474,0.32294,0.3211,0.3194,0.31771,0.31606,0.31453,0.31302,0.31166,0.31037,0.30916,0.3081,0.30717,0.30641,0.30575,0.30524,0.30484,0.3046,0.30452,0.30462,0.30497,0.30562,0.30665,0.30801,0.30989,0.31213,0.3148,0.31794,0.32122,0.32482,0.32841,0.33182,0.3351,0.33802,0.34074,0.34301,0.34485,0.34632,0.34735,0.34816,0.34879,0.34933,0.34984,0.35035,0.35092,0.35145,0.35197,0.35245,0.35281,0.35309,0.35324,0.35333,0.35345,0.35369,0.35411,0.3547,0.35545,0.35633,0.35724,0.35811,0.35885,0.35953,0.36005,0.36047,0.36084,0.36105,0.36124,0.36133,0.36137,0.36137,0.36137,0.36129,0.36115,0.36085,0.36037,0.35973,0.35883,0.35774,0.35651,0.35509,0.35356,0.35197,0.35036,0.34865,0.34701,0.34538,0.34375,0.34229,0.34084,0.33953,0.33834,0.3372,0.33614,0.33509,0.33405,0.33291,0.33175,0.33047,0.32909,0.32772,0.32625,0.32474,0.32314,0.3215,0.31989,0.31828,0.31685,0.31547,0.31438,0.31349,0.31282,0.31248,0.31245,0.31274,0.31342,0.3145,0.31595,0.31778,0.31997,0.32265,0.32573,0.32958,0.33402,0.33913,0.34523,0.352,0.35996,0.36878,0.37895,0.39024,0.40242,0.41599,0.42982,0.44475,0.45987,0.47544,0.49118,0.50613,0.521,0.53457,0.5477,0.55957,0.57049,0.58073,0.58953,0.59764,0.60457,0.6105,0.61518,0.61878,0.62142,0.62265,0.62291,0.6222,0.62046,0.61796,0.61484,0.61124,0.60736,0.60317,0.59904,0.59461,0.59019,0.58581,0.58135,0.57701,0.57261,0.56841,0.5641,0.55992,0.55573,0.55151,0.54735,0.54315,0.53914,0.53492,0.53101,0.527,0.52308,0.51937,0.51574,0.51234,0.50904,0.50612,0.50339,0.50098,0.49896,0.49722,0.4959,0.49497,0.49445,0.49427,0.49451,0.49523,0.49631,0.49774,0.49968,0.50199,0.50468,0.50758,0.51091,0.51446,0.51808,0.52204,0.52601,0.53019,0.53428,0.53856,0.54265,0.54676,0.5508,0.55459,0.55834,0.56177,0.56511,0.56809,0.57101,0.57377,0.57632,0.57877,0.58115,0.58342,0.5855,0.58749,0.58929,0.59103,0.59264,0.5942,0.59558,0.59683,0.59803,0.59895,0.59981,0.60058,0.60113,0.60164,0.60197,0.60214,0.60213,0.60201,0.6018,0.60148,0.60105,0.60044,0.59974,0.59888,0.59788,0.59675,0.59551,0.59413,0.5926,0.59106,0.58949,0.58783,0.58605,0.58428,0.58235,0.58034,0.57809,0.57595,0.57368,0.57138,0.5692,0.56696,0.56488,0.56266,0.56054,0.5583,0.55624,0.55408,0.5519,0.5496,0.54739,0.5451,0.54276,0.54046,0.53808,0.5357,0.53324,0.53083,0.52841,0.52612,0.52372,0.52142,0.51922,0.5171,0.51501,0.51298,0.51098,0.50911,0.50735,0.5056,0.5041,0.50258,0.50128,0.50018,0.49928,0.4986,0.4983,0.49826,0.49869,0.49954,0.50089,0.50279,0.50514,0.50812,0.51179,0.5158,0.52063,0.52581,0.53163,0.53746,0.54389,0.55018,0.55681,0.56323,0.56971,0.57576,0.5821,0.58821,0.59432,0.60028,0.60635,0.61217,0.61749,0.62205,0.62534,0.62758,0.62858,0.62876,0.6285,0.6283,0.62866,0.62945,0.63098,0.63329,0.63585,0.63859,0.64096,0.6428,0.64395,0.64445,0.64427,0.6438,0.64335,0.64269,0.64201,0.64115,0.64034,0.63943,0.63858,0.63768,0.637,0.63662,0.63643,0.63624,0.63615,0.6359,0.63518,0.6341,0.63265,0.63098,0.62956,0.6284,0.62764,0.6272,0.62712,0.62703,0.62704,0.62705,0.62712,0.62696,0.62687,0.62671,0.62667,0.62653,0.6265,0.62671,0.62705,0.62755,0.62853,0.62961,0.63106,0.63279,0.63479,0.63706,0.63981,0.64272,0.64597,0.64918,0.65261,0.65615,0.65963,0.66338,0.66711,0.67083,0.67443,0.67822,0.68199,0.68585,0.6896,0.69364,0.69763,0.70187,0.70603,0.71048,0.71471,0.7189,0.72296,0.72712,0.73091,0.73482,0.73845,0.74218,0.74582,0.74931,0.7528,0.75634,0.75956,0.7624,0.76547,0.76821,0.77086,0.77287,0.77479,0.77633,0.7777,0.7789,0.77963,0.7803,0.78066,0.78067,0.78045,0.78014,0.77958
0.056241,0.056031,0.055933,0.055881,0.055852,0.055925,0.056026,0.056258,0.056557,0.056938,0.057535,0.058312,0.059294,0.060635,0.06228,0.064225,0.066576,0.069201,0.072099,0.075348,0.078698,0.082317,0.086158,0.089938,0.093915,0.097901,0.10174,0.1057,0.10942,0.11304,0.1166,0.11983,0.12296,0.12593,0.12861,0.13132,0.13392,0.13647,0.13909,0.14159,0.14416,0.14668,0.14897,0.15125,0.15328,0.15504,0.15659,0.15781,0.15878,0.15945,0.15979,0.15987,0.15962,0.15905,0.15814,0.15695,0.1554,0.15355,0.15156,0.1493,0.14693,0.1446,0.1422,0.13993,0.13772,0.1356,0.13369,0.13186,0.13019,0.12872,0.12734,0.12614,0.12507,0.1241,0.12328,0.12252,0.12185,0.12127,0.12072,0.12022,0.11975,0.11929,0.11888,0.11845,0.118,0.11755,0.11705,0.11654,0.11597,0.11539,0.11478,0.11416,0.11355,0.11296,0.11238,0.11188,0.11143,0.11105,0.11077,0.11058,0.11051,0.11054,0.1107,0.11096,0.11139,0.11196,0.11267,0.11354,0.11462,0.11582,0.11729,0.11882,0.12064,0.12265,0.12479,0.12717,0.1297,0.13239,0.13531,0.13821,0.14136,0.1446,0.14781,0.15119,0.15449,0.15783,0.16119,0.16433,0.16753,0.17058,0.17347,0.17635,0.17907,0.18177,0.18448,0.18701,0.18968,0.19228,0.19497,0.19792,0.201,0.20459,0.20859,0.21289,0.21782,0.22304,0.22884,0.23519,0.24178,0.24924,0.25718,0.26543,0.27451,0.28354,0.2932,0.30304,0.31263,0.32258,0.33218,0.34161,0.35099,0.35953,0.36802,0.37587,0.38304,0.38977,0.39568,0.40102,0.40581,0.40979,0.41336,0.41631,0.41887,0.42108,0.42284,0.4244,0.42567,0.42673,0.42765,0.42838,0.42896,0.42936,0.42964,0.42974,0.42969,0.42943,0.42906,0.42856,0.42788,0.42713,0.4263,0.42539,0.42449,0.42345,0.42238,0.42127,0.42002,0.41875,0.41739,0.41593,0.41451,0.41297,0.41139,0.4098,0.40814,0.40654,0.40497,0.4034,0.40195,0.40051,0.39921,0.39796,0.39682,0.3958,0.39482,0.39399,0.39315,0.39248,0.39183,0.39131,0.39083,0.39036,0.38992,0.38948,0.38909,0.38872,0.38833,0.38803,0.3877,0.38736,0.38703,0.38667,0.3863,0.38587,0.38536,0.38485,0.38423,0.3835,0.38269,0.38177,0.38075,0.37962,0.37834,0.37701,0.37548,0.37386,0.37217,0.37028,0.3684,0.36634,0.36426,0.36215,0.35995,0.35781,0.35559,0.35337,0.35123,0.349,0.34688,0.34473,0.3426,0.34058,0.33849,0.33655,0.33458,0.33265,0.33082,0.32896,0.32724,0.32553,0.32387,0.32233,0.32082,0.31945,0.31812,0.31691,0.31585,0.3149,0.31414,0.31348,0.31295,0.3126,0.31234,0.31224,0.31236,0.31273,0.3134,0.31446,0.31587,0.31777,0.32009,0.32277,0.326,0.32935,0.33298,0.33657,0.34005,0.34343,0.34639,0.34915,0.35144,0.3533,0.35479,0.35583,0.35666,0.35727,0.35779,0.35835,0.35886,0.3594,0.35996,0.36048,0.36098,0.36135,0.36161,0.36175,0.36184,0.36197,0.36218,0.36262,0.3632,0.36396,0.36483,0.36576,0.36664,0.36738,0.36803,0.36857,0.369,0.36936,0.36959,0.36976,0.36982,0.36984,0.36983,0.36979,0.36972,0.36956,0.36926,0.36879,0.36814,0.36719,0.36612,0.36488,0.36344,0.36189,0.36029,0.35867,0.35697,0.35534,0.35366,0.35201,0.35052,0.34907,0.34777,0.34654,0.3454,0.34433,0.34328,0.34222,0.34108,0.33989,0.3386,0.33722,0.33586,0.33436,0.33285,0.33122,0.32954,0.32791,0.32625,0.32481,0.32342,0.3223,0.32141,0.32074,0.32039,0.32037,0.32068,0.32138,0.32248,0.32395,0.32583,0.32804,0.33074,0.33378,0.33763,0.34212,0.34728,0.3535,0.36034,0.36838,0.37728,0.38748,0.39887,0.41102,0.42459,0.4384,0.45335,0.4684,0.48382,0.49949,0.51426,0.529,0.54245,0.55543,0.56719,0.57801,0.58809,0.59681,0.60489,0.61164,0.61752,0.62222,0.62578,0.62831,0.62959,0.62984,0.62912,0.62745,0.62502,0.62193,0.61836,0.61461,0.61049,0.60634,0.60199,0.59769,0.59333,0.58896,0.58474,0.58037,0.57627,0.57202,0.56785,0.56372,0.55956,0.55548,0.55136,0.5474,0.54328,0.53938,0.53545,0.53161,0.52792,0.52429,0.52098,0.51775,0.51483,0.51209,0.50972,0.50771,0.50597,0.5047,0.50375,0.50322,0.50305,0.50333,0.50402,0.50506,0.50653,0.5085,0.5107,0.51342,0.51633,0.51955,0.52304,0.52676,0.53062,0.53451,0.53868,0.54278,0.54699,0.55105,0.55516,0.55911,0.5629,0.56664,0.56992,0.57318,0.57617,0.57909,0.5817,0.58426,0.58668,0.58892,0.59114,0.5931,0.59503,0.59687,0.59867,0.60026,0.60177,0.60321,0.60445,0.60553,0.60647,0.60741,0.60811,0.60869,0.60914,0.60948,0.60966,0.60965,0.6096,0.60935,0.60911,0.60859,0.60801,0.60731,0.60649,0.60559,0.60445,0.60327,0.60193,0.60048,0.59902,0.59742,0.59578,0.59407,0.59238,0.59043,0.58843,0.58637,0.58426,0.58205,0.57983,0.57768,0.57552,0.57338,0.57126,0.56917,0.56707,0.56501,0.56281,0.56078,0.55852,0.55634,0.55408,0.55176,0.5495,0.54713,0.54478,0.54238,0.53998,0.53753,0.53518,0.53289,0.53062,0.52842,0.52635,0.52419,0.52216,0.52028,0.51837,0.51656,0.51485,0.51331,0.51185,0.51062,0.50944,0.50862,0.50799,0.50769,0.50767,0.50803,0.5089,0.51026,0.51208,0.51447,0.51736,0.52095,0.52508,0.52987,0.53496,0.54077,0.54666,0.55298,0.55923,0.56573,0.57197,0.57849,0.58455,0.59082,0.59673,0.60283,0.60867,0.61469,0.62045,0.62565,0.63014,0.63339,0.63552,0.63666,0.63664,0.63642,0.63628,0.6366,0.63753,0.63914,0.6414,0.64386,0.64652,0.64887,0.65071,0.65168,0.6521,0.65193,0.65141,0.65094,0.65033,0.64957,0.64886,0.64801,0.64718,0.64627,0.64533,0.64486,0.64439,0.64413,0.64412,0.64412,0.64371,0.6431,0.64202,0.64056,0.6389,0.63745,0.63635,0.6355,0.63511,0.63502,0.63493,0.63504,0.63503,0.63492,0.63483,0.63484,0.63471,0.63447,0.63447,0.63442,0.63467,0.63507,0.6357,0.63644,0.63754,0.63892,0.64061,0.64268,0.64499,0.64761,0.65052,0.65358,0.65687,0.66017,0.66363,0.66711,0.67073,0.67432,0.6779,0.68153,0.68526,0.68892,0.69272,0.69648,0.70047,0.70441,0.70852,0.71257,0.71695,0.72098,0.72522,0.72925,0.73326,0.73697,0.74082,0.74438,0.74811,0.75159,0.75515,0.75854,0.76181,0.765,0.76824,0.77099,0.77362,0.7761,0.77808,0.78016,0.78151,0.78305,0.78408,0.7849,0.78541,0.78563,0.78582,0.78571,0.78534,0.78493
0.048786,0.048587,0.048485,0.048445,0.048431,0.048514,0.048621,0.048803,0.049056,0.049391,0.049899,0.050564,0.051399,0.05253,0.053945,0.055588,0.057571,0.059806,0.062255,0.065019,0.067826,0.070904,0.074149,0.077339,0.08073,0.084127,0.087404,0.090766,0.093928,0.097015,0.099997,0.10274,0.10538,0.10788,0.11012,0.11239,0.11458,0.11669,0.11889,0.12099,0.12316,0.12529,0.12721,0.12913,0.13084,0.13234,0.13365,0.13468,0.13549,0.13606,0.13634,0.13639,0.13618,0.13569,0.13492,0.13387,0.13255,0.13094,0.12922,0.12726,0.12521,0.12319,0.12111,0.11915,0.11723,0.11539,0.11374,0.11215,0.11069,0.10942,0.10821,0.10717,0.10623,0.1054,0.10467,0.10399,0.1034,0.10289,0.1024,0.10195,0.10155,0.10113,0.10076,0.10037,0.099971,0.09957,0.099117,0.098671,0.098171,0.097647,0.097111,0.096556,0.096021,0.095492,0.09499,0.094553,0.094148,0.09381,0.093561,0.093375,0.093302,0.093298,0.093418,0.093633,0.093979,0.09444,0.09504,0.095777,0.096676,0.097679,0.098909,0.1002,0.10176,0.10347,0.10527,0.1073,0.10945,0.11174,0.11423,0.1167,0.11939,0.12216,0.1249,0.12779,0.1306,0.13346,0.13633,0.13901,0.14173,0.14433,0.14678,0.14924,0.15152,0.15386,0.15617,0.1584,0.1607,0.16296,0.16529,0.16783,0.17049,0.17359,0.17708,0.18081,0.1851,0.18963,0.19466,0.20021,0.206,0.21251,0.21945,0.22669,0.2346,0.24255,0.25108,0.2598,0.26831,0.27717,0.28569,0.29413,0.30251,0.31022,0.31784,0.32487,0.33135,0.33743,0.34277,0.34757,0.35191,0.35551,0.35877,0.36147,0.36378,0.36581,0.36741,0.36887,0.37001,0.371,0.37182,0.37246,0.373,0.37335,0.37359,0.37365,0.37359,0.37335,0.37299,0.37249,0.37187,0.37115,0.37037,0.36954,0.36869,0.36778,0.36678,0.36581,0.36474,0.36363,0.36248,0.36122,0.36001,0.3587,0.35734,0.35596,0.35448,0.35304,0.35157,0.35012,0.34874,0.34736,0.34607,0.3449,0.34373,0.3427,0.3417,0.34087,0.34005,0.33931,0.33867,0.33809,0.33759,0.33712,0.33663,0.33624,0.33582,0.33546,0.33513,0.33485,0.33457,0.33426,0.33399,0.33368,0.33336,0.33298,0.33255,0.33206,0.33151,0.33086,0.33013,0.3293,0.32842,0.3274,0.32624,0.32502,0.32364,0.32216,0.32062,0.31892,0.3172,0.31536,0.31347,0.31154,0.30956,0.30761,0.30559,0.30359,0.30165,0.29964,0.29773,0.29578,0.29387,0.29204,0.29019,0.28843,0.28666,0.28493,0.2833,0.28166,0.28013,0.2786,0.27713,0.27575,0.2744,0.27318,0.27201,0.27093,0.27,0.26917,0.2685,0.26794,0.26748,0.26715,0.26694,0.26686,0.26694,0.26725,0.26781,0.26873,0.26994,0.27159,0.27362,0.27597,0.2788,0.28175,0.28495,0.28816,0.29123,0.29421,0.29684,0.29928,0.3013,0.30294,0.30426,0.30518,0.30591,0.30646,0.30693,0.30739,0.30784,0.30831,0.30879,0.30923,0.30962,0.30994,0.31016,0.31031,0.31038,0.31048,0.31069,0.31106,0.31154,0.31225,0.31304,0.31385,0.31463,0.3153,0.31588,0.31636,0.31674,0.31707,0.31726,0.31741,0.31748,0.31753,0.31752,0.31751,0.31743,0.31731,0.31704,0.3166,0.31603,0.3152,0.31425,0.31311,0.31182,0.31042,0.30896,0.30751,0.30598,0.3045,0.303,0.30153,0.30019,0.29891,0.29775,0.29668,0.29564,0.2947,0.29374,0.29279,0.29177,0.29066,0.28949,0.28825,0.287,0.28565,0.28427,0.28279,0.28129,0.27984,0.27836,0.27707,0.27586,0.27487,0.27406,0.27348,0.27317,0.27316,0.27343,0.27405,0.27502,0.27633,0.27798,0.27991,0.28225,0.28496,0.28836,0.29238,0.29701,0.30256,0.30868,0.31593,0.32393,0.33312,0.34343,0.35444,0.36679,0.37938,0.39308,0.40694,0.42122,0.43577,0.44958,0.46341,0.47606,0.4883,0.49948,0.50981,0.51943,0.52776,0.53551,0.54206,0.5477,0.55225,0.55569,0.55809,0.5593,0.55953,0.55873,0.55702,0.55466,0.55166,0.54814,0.54447,0.54046,0.53644,0.53225,0.52806,0.52382,0.51957,0.51553,0.51131,0.50731,0.50323,0.49928,0.49529,0.4913,0.48744,0.48345,0.47966,0.47576,0.47201,0.46827,0.46463,0.46122,0.45777,0.45464,0.45159,0.44887,0.44632,0.44408,0.44224,0.44061,0.43941,0.43856,0.43804,0.43788,0.43816,0.43884,0.43984,0.4412,0.443,0.4451,0.44763,0.45038,0.45342,0.45667,0.46013,0.46379,0.46742,0.47133,0.47516,0.4791,0.48291,0.48678,0.49056,0.49413,0.49765,0.50079,0.50394,0.5068,0.50965,0.51226,0.51475,0.5171,0.51936,0.5215,0.52351,0.52551,0.52727,0.52903,0.53064,0.53208,0.53343,0.53468,0.53588,0.53676,0.53764,0.53836,0.5389,0.53936,0.53966,0.53986,0.53986,0.53975,0.53957,0.5393,0.53888,0.53827,0.5376,0.53676,0.53587,0.53477,0.5336,0.53222,0.53077,0.52921,0.5277,0.52607,0.52436,0.52263,0.5208,0.51886,0.51677,0.51464,0.51244,0.51029,0.50818,0.506,0.50393,0.50184,0.49982,0.49772,0.49571,0.49358,0.49157,0.48936,0.48724,0.48506,0.48287,0.48069,0.47844,0.47622,0.47393,0.47167,0.46944,0.46725,0.46502,0.46291,0.46083,0.45886,0.4569,0.45499,0.45321,0.45144,0.4498,0.44819,0.44672,0.44538,0.44416,0.44316,0.44237,0.44171,0.44142,0.44141,0.44174,0.44251,0.44377,0.44546,0.44764,0.45033,0.45368,0.45728,0.46164,0.46639,0.47169,0.47717,0.48308,0.48895,0.49509,0.50107,0.50711,0.51283,0.51874,0.52439,0.53016,0.53584,0.54156,0.54712,0.55208,0.55634,0.5595,0.56146,0.56237,0.56238,0.56207,0.56164,0.56161,0.56237,0.56374,0.56571,0.56801,0.5705,0.57273,0.57456,0.57571,0.57627,0.57637,0.57599,0.57568,0.57512,0.57449,0.57377,0.57293,0.57207,0.57111,0.57029,0.56954,0.56895,0.56871,0.5684,0.56813,0.56772,0.56704,0.56606,0.56473,0.56327,0.56192,0.56089,0.56022,0.55979,0.55971,0.55964,0.55958,0.55972,0.5597,0.55962,0.55953,0.55935,0.55922,0.55912,0.55916,0.55931,0.55961,0.56019,0.56092,0.56194,0.56341,0.56498,0.56695,0.56926,0.57176,0.57452,0.57753,0.58075,0.58408,0.58748,0.59106,0.59456,0.59814,0.60162,0.60507,0.60875,0.61222,0.61602,0.61977,0.62375,0.6277,0.63185,0.63587,0.64004,0.64426,0.64849,0.65248,0.65643,0.66015,0.66395,0.66743,0.6711,0.67467,0.67825,0.6817,0.68492,0.68803,0.69127,0.69405,0.69684,0.69924,0.70137,0.70326,0.70489,0.70621,0.70718,0.70793,0.7085,0.70894,0.70919,0.70903,0.70859,0.7082
0.049272,0.04905,0.048967,0.048934,0.048904,0.048976,0.04909,0.049289,0.049546,0.049878,0.050379,0.051057,0.051897,0.053033,0.05446,0.056123,0.058128,0.060395,0.062899,0.06571,0.068609,0.071754,0.075084,0.078367,0.081833,0.085298,0.088671,0.09213,0.095359,0.098493,0.10156,0.10436,0.10707,0.10965,0.11196,0.11432,0.11659,0.11878,0.12105,0.12324,0.12546,0.12766,0.12965,0.13163,0.1334,0.13495,0.13631,0.13738,0.13823,0.13882,0.13913,0.13918,0.13895,0.13845,0.13765,0.13658,0.13522,0.13358,0.13184,0.12987,0.1278,0.12577,0.12367,0.12169,0.11976,0.1179,0.11623,0.11462,0.11315,0.11186,0.11065,0.10959,0.10865,0.10779,0.10707,0.10639,0.1058,0.10528,0.1048,0.10435,0.10393,0.10353,0.10316,0.10277,0.10236,0.10196,0.1015,0.10105,0.10054,0.10001,0.099463,0.098917,0.098365,0.097834,0.097316,0.09686,0.096453,0.096113,0.09586,0.095673,0.095593,0.095602,0.095728,0.095948,0.096301,0.096783,0.097402,0.098156,0.099084,0.10012,0.1014,0.10273,0.10432,0.10609,0.10796,0.11004,0.11226,0.11461,0.11719,0.11974,0.12252,0.12537,0.12821,0.1312,0.13413,0.13708,0.14004,0.14282,0.14563,0.1483,0.15081,0.15331,0.15568,0.15808,0.16045,0.16274,0.16512,0.16747,0.16986,0.17249,0.17519,0.17836,0.18193,0.18576,0.19018,0.19489,0.20011,0.20587,0.21189,0.21868,0.2259,0.23337,0.24166,0.24996,0.25882,0.26792,0.27676,0.286,0.29489,0.3037,0.31245,0.32047,0.32841,0.33575,0.34247,0.34878,0.35429,0.3593,0.36382,0.36755,0.37093,0.37371,0.37614,0.37821,0.37989,0.38136,0.38256,0.38356,0.38443,0.38511,0.38564,0.38605,0.38627,0.38635,0.38627,0.38602,0.38561,0.38511,0.3845,0.3838,0.38305,0.38222,0.3814,0.38051,0.37954,0.37857,0.37744,0.37628,0.37506,0.37364,0.37229,0.37079,0.36927,0.36766,0.36587,0.3643,0.36265,0.36105,0.35952,0.35802,0.35669,0.35538,0.35425,0.35328,0.35229,0.35145,0.35068,0.35002,0.34941,0.34887,0.34842,0.34801,0.34758,0.3472,0.34683,0.34653,0.34618,0.34589,0.34561,0.34532,0.34503,0.34471,0.3444,0.34403,0.34356,0.34308,0.34248,0.34183,0.34107,0.34021,0.33925,0.3382,0.33704,0.33582,0.33438,0.33285,0.33125,0.32948,0.32772,0.3258,0.32384,0.32185,0.31978,0.31777,0.31568,0.31361,0.31158,0.30949,0.3075,0.30549,0.30351,0.30161,0.29968,0.29785,0.29601,0.29421,0.2925,0.29079,0.2892,0.28759,0.28606,0.28466,0.28324,0.28196,0.28072,0.27958,0.27859,0.27771,0.27698,0.27636,0.27586,0.27548,0.27521,0.27509,0.27514,0.27544,0.27601,0.27692,0.27816,0.27985,0.28192,0.28434,0.28722,0.29024,0.29352,0.2968,0.29992,0.30298,0.30566,0.30813,0.31015,0.31175,0.313,0.31386,0.31454,0.31504,0.31546,0.31589,0.31631,0.31679,0.31726,0.31771,0.31812,0.31842,0.31869,0.31891,0.31907,0.31929,0.31963,0.32012,0.32074,0.32155,0.32243,0.32327,0.32414,0.32483,0.32542,0.3259,0.32628,0.32659,0.3268,0.32697,0.32705,0.32714,0.3272,0.32723,0.32724,0.32716,0.32693,0.32655,0.32595,0.32512,0.32415,0.32298,0.32163,0.32021,0.31869,0.31716,0.31558,0.31403,0.31246,0.31095,0.30956,0.30821,0.307,0.30587,0.30481,0.30381,0.30284,0.30185,0.30077,0.29967,0.29848,0.2972,0.29592,0.29454,0.29316,0.29164,0.29005,0.28849,0.28695,0.28561,0.28433,0.28331,0.28248,0.28187,0.28158,0.28158,0.28185,0.28248,0.28351,0.28491,0.28671,0.28878,0.29123,0.29399,0.29746,0.30159,0.30641,0.31227,0.31874,0.32636,0.33477,0.34441,0.35517,0.36673,0.37968,0.39291,0.40727,0.42176,0.43663,0.45174,0.46601,0.48032,0.49343,0.50613,0.51767,0.5283,0.53822,0.54672,0.55463,0.56124,0.56703,0.57159,0.57504,0.5775,0.57866,0.57883,0.578,0.57615,0.57358,0.57045,0.56684,0.56304,0.55889,0.55477,0.55042,0.54612,0.54174,0.53735,0.53314,0.52883,0.52466,0.52045,0.51639,0.51224,0.50809,0.50409,0.49997,0.49603,0.49198,0.48815,0.48429,0.48051,0.47695,0.47341,0.47014,0.46697,0.46417,0.46155,0.45926,0.45733,0.45568,0.45443,0.45354,0.45308,0.45292,0.45321,0.45395,0.45501,0.45644,0.45835,0.46058,0.46321,0.46605,0.46921,0.47262,0.47624,0.47998,0.48379,0.4878,0.49173,0.49583,0.49984,0.50379,0.50767,0.51136,0.51493,0.5183,0.52157,0.5245,0.52744,0.53017,0.53276,0.53518,0.53751,0.5398,0.54188,0.54393,0.54578,0.54757,0.54924,0.55077,0.55219,0.55345,0.55457,0.55561,0.55653,0.55723,0.55785,0.55827,0.55856,0.55869,0.55878,0.55867,0.55849,0.55818,0.55773,0.55715,0.55632,0.55534,0.55444,0.55327,0.55204,0.55068,0.54922,0.54762,0.54597,0.5443,0.5425,0.54069,0.53877,0.53673,0.53458,0.53244,0.5302,0.52798,0.52583,0.52361,0.52146,0.51922,0.51714,0.51504,0.51298,0.51075,0.5086,0.50636,0.50418,0.50195,0.49965,0.49747,0.49513,0.49282,0.49039,0.48808,0.48571,0.48344,0.48112,0.47895,0.47683,0.47485,0.47279,0.47087,0.46904,0.46719,0.46542,0.46371,0.46224,0.46082,0.45961,0.45855,0.45769,0.45703,0.45678,0.45675,0.45716,0.45795,0.45921,0.46087,0.46317,0.46596,0.46945,0.47341,0.47796,0.48287,0.48843,0.49408,0.50021,0.50627,0.51266,0.51873,0.52494,0.53083,0.53693,0.54269,0.54861,0.55446,0.5603,0.56601,0.57112,0.57547,0.57863,0.58064,0.58143,0.5814,0.58086,0.58047,0.58051,0.58116,0.5824,0.58442,0.58681,0.58925,0.59148,0.59334,0.59453,0.59523,0.59538,0.59508,0.59483,0.59431,0.59376,0.59299,0.59217,0.59127,0.59029,0.58937,0.58868,0.58811,0.58774,0.58742,0.58706,0.58657,0.58579,0.58466,0.5834,0.58187,0.58063,0.57974,0.57905,0.57872,0.57861,0.57855,0.57858,0.5786,0.57861,0.57848,0.57828,0.57822,0.57812,0.57798,0.57796,0.57813,0.57857,0.57919,0.57994,0.58103,0.58249,0.58421,0.58625,0.58858,0.59123,0.59411,0.5972,0.60044,0.60391,0.60754,0.61115,0.61473,0.61834,0.62202,0.62569,0.62951,0.63327,0.63701,0.64077,0.6449,0.64898,0.65329,0.65741,0.6618,0.666,0.67013,0.6743,0.67841,0.68225,0.68603,0.68983,0.69358,0.69705,0.70059,0.70399,0.70735,0.71056,0.71369,0.71659,0.71939,0.72191,0.72399,0.72598,0.7275,0.72901,0.73002,0.73088,0.73131,0.73169,0.73182,0.7317,0.73147,0.73103
0.054434,0.054277,0.054161,0.054097,0.054078,0.054112,0.054201,0.054409,0.054741,0.055174,0.055824,0.056725,0.057833,0.059348,0.06122,0.063417,0.066058,0.069049,0.072348,0.07607,0.079928,0.084041,0.088447,0.09281,0.097419,0.10201,0.10644,0.11101,0.11533,0.11951,0.12356,0.12729,0.13091,0.13432,0.13736,0.14051,0.14348,0.14639,0.14935,0.15221,0.15515,0.15804,0.16072,0.16336,0.16577,0.16788,0.16976,0.17125,0.17244,0.17333,0.17384,0.17403,0.17386,0.17335,0.17242,0.17119,0.16952,0.1675,0.1653,0.16278,0.16013,0.15748,0.15473,0.15215,0.14963,0.14718,0.14501,0.14291,0.14102,0.13935,0.1378,0.13646,0.13525,0.13418,0.13326,0.13242,0.13165,0.13101,0.13038,0.12984,0.1293,0.1288,0.12832,0.12782,0.12731,0.1268,0.12624,0.12567,0.12504,0.12439,0.12374,0.12306,0.12238,0.12176,0.12114,0.1206,0.12014,0.11975,0.11948,0.11931,0.11928,0.11936,0.11957,0.11991,0.12045,0.12113,0.12197,0.12302,0.12426,0.12568,0.12737,0.1292,0.13131,0.13365,0.13614,0.13891,0.14183,0.14492,0.14828,0.15162,0.15523,0.15892,0.16255,0.16638,0.17013,0.17394,0.17781,0.18146,0.18517,0.18878,0.19217,0.19554,0.19868,0.2018,0.20486,0.20775,0.21075,0.21372,0.21677,0.22016,0.22369,0.2278,0.23237,0.23723,0.24285,0.24883,0.25545,0.26274,0.27027,0.27865,0.28752,0.29672,0.30678,0.31681,0.32743,0.33824,0.34871,0.35953,0.36989,0.38008,0.39011,0.39929,0.40832,0.41662,0.4242,0.4313,0.4375,0.44313,0.4481,0.45224,0.45595,0.45899,0.46159,0.46383,0.46563,0.46722,0.46851,0.46961,0.47054,0.47126,0.47185,0.47227,0.47252,0.47261,0.47256,0.47229,0.47187,0.47133,0.47063,0.46981,0.46888,0.46782,0.46672,0.46548,0.46424,0.46289,0.46146,0.45994,0.45844,0.45687,0.45532,0.45367,0.45206,0.45043,0.44876,0.44718,0.44559,0.44405,0.44257,0.44111,0.43979,0.43849,0.43731,0.43629,0.43528,0.4344,0.43357,0.43284,0.43222,0.43164,0.43116,0.43066,0.43019,0.42978,0.4294,0.42905,0.42871,0.42833,0.428,0.42768,0.42734,0.42696,0.42657,0.42611,0.42562,0.42504,0.42437,0.42358,0.42274,0.42176,0.42069,0.41949,0.41813,0.41673,0.41514,0.41343,0.41167,0.40967,0.40766,0.40552,0.40333,0.40111,0.39877,0.39651,0.39415,0.39182,0.38957,0.38719,0.38496,0.38269,0.38043,0.37829,0.37609,0.374,0.37191,0.36989,0.36795,0.36598,0.36415,0.36233,0.36059,0.35895,0.35734,0.3559,0.35451,0.35321,0.3521,0.35111,0.3503,0.34964,0.34912,0.34874,0.34851,0.34842,0.34854,0.34897,0.34964,0.35077,0.35226,0.35427,0.35676,0.35967,0.36311,0.3667,0.37063,0.37454,0.37832,0.38201,0.38526,0.38831,0.39088,0.39302,0.39479,0.39607,0.3971,0.39791,0.39862,0.39931,0.39997,0.40063,0.40129,0.40192,0.40244,0.40287,0.40313,0.40322,0.40325,0.40328,0.40345,0.40381,0.40435,0.40514,0.40608,0.40703,0.40802,0.40892,0.40974,0.4104,0.41099,0.41149,0.41182,0.41211,0.41222,0.41227,0.41233,0.41225,0.41214,0.41197,0.41164,0.41109,0.41035,0.40932,0.40816,0.40679,0.40528,0.40366,0.40191,0.40017,0.39833,0.39655,0.39475,0.39299,0.39141,0.38984,0.38844,0.38708,0.38584,0.3847,0.38358,0.38246,0.38124,0.38004,0.3787,0.37726,0.37586,0.3743,0.37276,0.37109,0.36942,0.36773,0.36605,0.36457,0.36312,0.36193,0.36098,0.36031,0.35996,0.35996,0.3603,0.36103,0.36218,0.36373,0.36578,0.36822,0.3713,0.37483,0.37922,0.38422,0.3899,0.39663,0.404,0.41267,0.42225,0.43323,0.44541,0.45843,0.47288,0.4875,0.50322,0.51902,0.53514,0.55139,0.5667,0.5818,0.59548,0.60869,0.62053,0.63146,0.64156,0.65023,0.65823,0.66493,0.6707,0.67508,0.67852,0.68096,0.68212,0.68224,0.68141,0.67969,0.67716,0.6741,0.67047,0.66683,0.66268,0.65849,0.65405,0.64973,0.64526,0.64079,0.63647,0.63204,0.6278,0.6234,0.61914,0.61483,0.61053,0.60639,0.60206,0.59789,0.59378,0.5898,0.58573,0.58183,0.5781,0.57434,0.57092,0.56763,0.56468,0.5619,0.55944,0.55745,0.55571,0.55441,0.5535,0.55304,0.55285,0.55309,0.55376,0.55482,0.55628,0.55828,0.56058,0.56329,0.56622,0.5696,0.57309,0.5768,0.58079,0.58475,0.58892,0.59304,0.59726,0.60134,0.60553,0.60938,0.6132,0.61691,0.62044,0.62378,0.62679,0.62982,0.63252,0.63518,0.63767,0.64005,0.64243,0.64447,0.64657,0.6484,0.65016,0.6518,0.65337,0.65476,0.65593,0.65708,0.65809,0.65899,0.65967,0.66025,0.66071,0.66094,0.66109,0.66113,0.66098,0.6607,0.6604,0.66002,0.65944,0.65871,0.65782,0.65694,0.65577,0.65446,0.65313,0.65164,0.65006,0.64836,0.64667,0.64492,0.64314,0.64113,0.63919,0.63696,0.63477,0.6324,0.62998,0.62769,0.62543,0.62317,0.62093,0.61878,0.61652,0.61438,0.61215,0.60999,0.6077,0.60546,0.6032,0.60089,0.59846,0.59603,0.59367,0.59126,0.58887,0.58638,0.58404,0.58167,0.57943,0.57715,0.57508,0.57294,0.5709,0.56901,0.56711,0.56545,0.56375,0.56221,0.56079,0.55958,0.55857,0.55778,0.55725,0.55706,0.55727,0.55784,0.5588,0.56033,0.56237,0.56507,0.56821,0.57208,0.57639,0.58141,0.58675,0.59271,0.59876,0.60529,0.61169,0.61837,0.62479,0.63136,0.63748,0.64383,0.64996,0.65612,0.66216,0.6681,0.67386,0.67902,0.68356,0.68689,0.68902,0.68998,0.69025,0.69042,0.6905,0.69099,0.69219,0.69402,0.69654,0.69944,0.70225,0.7046,0.70646,0.7074,0.70762,0.70745,0.70676,0.7061,0.70528,0.70464,0.70391,0.70317,0.70235,0.70146,0.70079,0.70017,0.69988,0.69993,0.70002,0.70011,0.69993,0.69926,0.69819,0.6968,0.69511,0.69365,0.69235,0.69154,0.69113,0.69096,0.69092,0.69105,0.69121,0.69135,0.69109,0.69096,0.69075,0.69074,0.69071,0.69076,0.6909,0.69138,0.69191,0.69283,0.69386,0.69527,0.69706,0.69916,0.70144,0.70413,0.7069,0.71011,0.71331,0.71652,0.72013,0.72348,0.72709,0.7307,0.73442,0.73788,0.7416,0.74539,0.74919,0.75287,0.7569,0.7607,0.76487,0.76903,0.77304,0.77716,0.78143,0.78535,0.78951,0.79311,0.79701,0.80046,0.80423,0.8077,0.81123,0.81472,0.81815,0.82111,0.82416,0.82723,0.82988,0.83223,0.83434,0.83645,0.83779,0.83914,0.84015,0.84093,0.84146,0.84182,0.84184,0.84172,0.84149,0.84084
0.054668,0.054542,0.054401,0.054326,0.054313,0.054336,0.0544,0.054565,0.054876,0.05529,0.055911,0.05677,0.05781,0.059272,0.061047,0.06316,0.065709,0.068572,0.071726,0.075295,0.078995,0.082937,0.087142,0.091304,0.095706,0.10011,0.10431,0.10866,0.11277,0.11674,0.12058,0.1241,0.12755,0.13081,0.13373,0.13673,0.1396,0.14241,0.14527,0.14802,0.15085,0.15364,0.15618,0.15869,0.16098,0.163,0.16476,0.16616,0.1673,0.16812,0.16859,0.16873,0.16854,0.16799,0.16705,0.1658,0.16418,0.1622,0.16006,0.15765,0.15513,0.15264,0.15007,0.14765,0.14529,0.14302,0.14099,0.13904,0.13726,0.1357,0.13425,0.13301,0.13189,0.13088,0.13004,0.12925,0.12855,0.12793,0.12736,0.12686,0.12636,0.12589,0.12544,0.12497,0.12449,0.12401,0.12348,0.12294,0.12234,0.12171,0.12109,0.12043,0.11979,0.1192,0.1186,0.11809,0.11765,0.11728,0.11701,0.11686,0.11682,0.11689,0.11709,0.11743,0.11793,0.1186,0.11939,0.12039,0.12157,0.12292,0.12455,0.12629,0.12831,0.13054,0.13291,0.13556,0.13835,0.1413,0.1445,0.14767,0.15112,0.15463,0.15811,0.16173,0.16529,0.1689,0.17259,0.17603,0.17956,0.18298,0.18619,0.1894,0.19239,0.19538,0.19832,0.20111,0.20397,0.20683,0.20973,0.21296,0.21631,0.22023,0.22458,0.22928,0.23464,0.2403,0.24664,0.25364,0.26094,0.26908,0.27773,0.28669,0.29655,0.30634,0.31677,0.3274,0.33772,0.34844,0.35866,0.36883,0.37885,0.38806,0.39712,0.40551,0.41315,0.42036,0.42665,0.43238,0.43746,0.44165,0.44547,0.44856,0.45126,0.45355,0.45539,0.45705,0.45837,0.45948,0.46042,0.46118,0.46175,0.4622,0.46246,0.46256,0.46246,0.46222,0.46181,0.46124,0.4605,0.45966,0.45873,0.45766,0.45658,0.45538,0.45415,0.45283,0.45141,0.44996,0.44844,0.44687,0.44538,0.44377,0.44214,0.44047,0.43881,0.43722,0.43558,0.43406,0.43256,0.43114,0.42982,0.42852,0.42737,0.42627,0.42528,0.42439,0.42355,0.4228,0.42214,0.42155,0.42099,0.42051,0.42004,0.41956,0.41922,0.41882,0.41845,0.41812,0.41776,0.41744,0.4171,0.41672,0.41635,0.41587,0.41537,0.41477,0.41408,0.41332,0.41247,0.41147,0.4104,0.4092,0.40783,0.4064,0.4048,0.40309,0.40127,0.39928,0.3973,0.39513,0.3929,0.39067,0.38832,0.38607,0.38369,0.38133,0.37906,0.37666,0.3744,0.37213,0.36985,0.36769,0.36547,0.36337,0.3613,0.35925,0.35725,0.35535,0.35351,0.35167,0.34994,0.34826,0.34665,0.3452,0.34377,0.34245,0.34131,0.34024,0.3394,0.33867,0.33806,0.33762,0.33729,0.33711,0.33717,0.3375,0.33809,0.33915,0.34058,0.34253,0.34496,0.34776,0.35114,0.35469,0.35855,0.36239,0.3661,0.36972,0.37292,0.37591,0.37837,0.3804,0.38205,0.38319,0.38412,0.3848,0.3854,0.386,0.38655,0.38715,0.38775,0.38828,0.38879,0.38917,0.3894,0.38954,0.38961,0.38972,0.39001,0.39048,0.39116,0.39209,0.39312,0.39416,0.39521,0.39611,0.3969,0.39756,0.39807,0.39851,0.39881,0.39901,0.39909,0.39916,0.39921,0.3992,0.39918,0.39908,0.39879,0.39832,0.3976,0.39662,0.39551,0.39414,0.3926,0.39097,0.38921,0.38742,0.38556,0.38375,0.38193,0.38017,0.37856,0.37698,0.37554,0.3742,0.37293,0.37177,0.37063,0.3695,0.3683,0.36711,0.36579,0.36434,0.36292,0.36136,0.35979,0.35813,0.35642,0.35468,0.35302,0.35152,0.35012,0.3489,0.34796,0.3473,0.34697,0.34693,0.34728,0.34799,0.34911,0.3506,0.35258,0.35497,0.35799,0.36148,0.36584,0.37086,0.3765,0.3832,0.39052,0.39917,0.40877,0.41978,0.43202,0.44509,0.45973,0.47454,0.49056,0.5067,0.52325,0.53993,0.55573,0.57138,0.58557,0.5993,0.61175,0.62317,0.63375,0.64291,0.65133,0.65843,0.66458,0.66944,0.67314,0.67556,0.67693,0.67714,0.67637,0.67455,0.67203,0.66889,0.66522,0.66129,0.65697,0.65253,0.64796,0.64342,0.63875,0.63403,0.62966,0.62506,0.62055,0.61598,0.61149,0.60704,0.6025,0.59823,0.59374,0.58945,0.58507,0.58094,0.57675,0.57261,0.56872,0.56486,0.56127,0.55777,0.55478,0.55188,0.54933,0.54718,0.54536,0.54396,0.54298,0.54244,0.54227,0.54238,0.54304,0.54415,0.54556,0.54765,0.54997,0.55278,0.55574,0.55923,0.56288,0.56665,0.57071,0.57486,0.57917,0.58337,0.58777,0.59208,0.59635,0.6005,0.60444,0.60818,0.61171,0.61521,0.61842,0.62155,0.62436,0.62719,0.62986,0.63233,0.63475,0.63701,0.63914,0.64108,0.64301,0.64478,0.6464,0.64781,0.64918,0.65034,0.6514,0.65227,0.65303,0.65362,0.65411,0.65439,0.65457,0.65461,0.65448,0.65424,0.65389,0.65344,0.65279,0.65208,0.65123,0.65022,0.64895,0.64767,0.64622,0.64462,0.64301,0.64119,0.63944,0.63759,0.63569,0.6336,0.63148,0.62916,0.62684,0.62434,0.62189,0.61947,0.61706,0.61474,0.6124,0.61015,0.60777,0.60557,0.6032,0.60088,0.59843,0.59603,0.5936,0.5912,0.58868,0.58616,0.5836,0.58103,0.57856,0.57596,0.57352,0.57104,0.56871,0.56629,0.56408,0.56193,0.55985,0.55778,0.55579,0.554,0.55222,0.55057,0.54905,0.54773,0.54658,0.54569,0.54503,0.54469,0.5448,0.54526,0.54621,0.54771,0.54972,0.55235,0.55548,0.55934,0.56374,0.56885,0.57428,0.58039,0.58667,0.59343,0.60016,0.60719,0.61385,0.62086,0.62738,0.63404,0.64048,0.64689,0.6533,0.65971,0.66586,0.67145,0.6763,0.6799,0.68222,0.6834,0.68373,0.68363,0.68359,0.68388,0.68514,0.68707,0.68967,0.69244,0.69546,0.69795,0.69977,0.70084,0.70107,0.70075,0.70012,0.69943,0.6986,0.69786,0.69706,0.69609,0.69517,0.69426,0.69341,0.69285,0.69253,0.69243,0.69253,0.69258,0.69231,0.69174,0.69048,0.68901,0.68719,0.68545,0.68419,0.68345,0.68299,0.68288,0.68284,0.68305,0.68304,0.68307,0.68301,0.6829,0.68275,0.68283,0.68274,0.68261,0.68282,0.68329,0.68389,0.68482,0.68603,0.68764,0.68938,0.69161,0.69407,0.6969,0.70011,0.70343,0.70682,0.7104,0.71402,0.71769,0.72157,0.72537,0.72935,0.73317,0.73695,0.74094,0.74479,0.74876,0.75294,0.75696,0.76141,0.76559,0.77014,0.77443,0.77858,0.78301,0.78704,0.79086,0.79495,0.79872,0.80263,0.80634,0.80996,0.81339,0.81693,0.82028,0.82344,0.82659,0.82938,0.83168,0.8339,0.83585,0.83761,0.83873,0.83989,0.84049,0.84124,0.84157,0.84149,0.84139,0.84095,0.84054
0.039546,0.039365,0.039259,0.03922,0.039178,0.039214,0.039275,0.039438,0.039664,0.03999,0.040496,0.041175,0.042035,0.043208,0.044624,0.046342,0.048383,0.050707,0.053256,0.056157,0.05917,0.062355,0.065819,0.069213,0.072801,0.076422,0.079873,0.083433,0.086772,0.089992,0.093105,0.095945,0.098718,0.10128,0.1036,0.10599,0.10828,0.11051,0.11281,0.11504,0.11732,0.11958,0.12165,0.12371,0.1256,0.12725,0.12873,0.12992,0.13087,0.13158,0.132,0.13215,0.13203,0.13161,0.13087,0.12988,0.12857,0.12696,0.12521,0.12324,0.12115,0.11908,0.11694,0.11492,0.11297,0.11108,0.1094,0.10779,0.10631,0.10502,0.10381,0.10278,0.10184,0.10102,0.1003,0.099655,0.099072,0.098563,0.098064,0.097637,0.097201,0.096804,0.09642,0.096009,0.095603,0.095181,0.094731,0.094267,0.093759,0.093214,0.0927,0.092155,0.091619,0.091107,0.090607,0.090171,0.089794,0.089477,0.08924,0.089089,0.08903,0.089061,0.089211,0.089449,0.089828,0.090328,0.090962,0.091747,0.092677,0.09376,0.095054,0.096447,0.098066,0.09985,0.10176,0.1039,0.10614,0.10852,0.11111,0.11367,0.11646,0.11929,0.12212,0.12508,0.12799,0.13094,0.13395,0.13678,0.13967,0.14247,0.1451,0.14771,0.15016,0.1526,0.155,0.15725,0.15958,0.1619,0.16426,0.1669,0.16964,0.17285,0.17641,0.18023,0.18461,0.18932,0.19455,0.20038,0.20642,0.21321,0.22045,0.22794,0.23624,0.24457,0.25348,0.26261,0.27151,0.28079,0.28975,0.29863,0.30745,0.31556,0.32362,0.33108,0.33792,0.34439,0.35004,0.35522,0.35978,0.36355,0.36696,0.36971,0.37208,0.37408,0.37572,0.37716,0.37833,0.37933,0.38017,0.38082,0.38134,0.38174,0.38196,0.38204,0.38198,0.38174,0.38133,0.38078,0.38011,0.3793,0.37838,0.37738,0.37633,0.3752,0.37403,0.37283,0.37155,0.37028,0.36893,0.36751,0.36619,0.36475,0.36331,0.36184,0.36028,0.35892,0.35748,0.35611,0.35475,0.35342,0.35222,0.35104,0.34996,0.34907,0.34813,0.34732,0.34655,0.34585,0.34528,0.3447,0.34422,0.34383,0.34343,0.34305,0.34269,0.34242,0.3421,0.34182,0.34156,0.3413,0.34101,0.34069,0.34037,0.33996,0.33952,0.33901,0.33841,0.33773,0.33695,0.33613,0.33516,0.33409,0.33293,0.33168,0.33025,0.32875,0.32715,0.32539,0.3236,0.32168,0.31973,0.31775,0.31566,0.31366,0.31155,0.30946,0.30744,0.30532,0.30333,0.3013,0.29929,0.29738,0.29542,0.29358,0.29174,0.28994,0.28822,0.28649,0.28487,0.28327,0.28173,0.28029,0.27887,0.27759,0.27634,0.27518,0.27416,0.27322,0.27245,0.27179,0.27123,0.2708,0.27046,0.27025,0.27022,0.27043,0.27087,0.27169,0.27283,0.27439,0.2764,0.27873,0.28155,0.28452,0.28779,0.29103,0.29417,0.29725,0.29996,0.30252,0.30462,0.30635,0.30773,0.3087,0.30944,0.31,0.31048,0.31093,0.31137,0.31183,0.31227,0.31272,0.31314,0.3134,0.31358,0.31372,0.3138,0.31397,0.31426,0.31473,0.31537,0.31622,0.31715,0.3181,0.31904,0.31984,0.32058,0.32116,0.32166,0.32205,0.32235,0.32256,0.32272,0.32283,0.32291,0.32299,0.323,0.32292,0.32269,0.32228,0.32169,0.32083,0.31983,0.31861,0.31726,0.31581,0.31424,0.31269,0.31103,0.30944,0.30787,0.30631,0.3049,0.30352,0.30228,0.30111,0.30003,0.29902,0.29803,0.29708,0.29606,0.29497,0.2938,0.29259,0.29132,0.28995,0.28861,0.28716,0.28574,0.28426,0.28279,0.28146,0.28021,0.27919,0.27836,0.27773,0.2774,0.27738,0.27764,0.2782,0.27912,0.28038,0.28202,0.28408,0.28669,0.28971,0.29342,0.29768,0.30245,0.30814,0.31444,0.32193,0.33022,0.3398,0.35054,0.36207,0.37498,0.38818,0.40257,0.41711,0.43211,0.44738,0.46181,0.47622,0.48934,0.50207,0.51362,0.52431,0.5343,0.54288,0.55084,0.55758,0.56341,0.568,0.5715,0.57394,0.57512,0.57524,0.57437,0.57255,0.56998,0.56683,0.56317,0.55931,0.55505,0.55086,0.54641,0.54198,0.5375,0.53304,0.52872,0.52423,0.51998,0.51555,0.51127,0.50693,0.50264,0.4985,0.49427,0.49021,0.48613,0.4822,0.47826,0.47445,0.47084,0.46728,0.464,0.46087,0.45807,0.45544,0.45315,0.45127,0.44964,0.44844,0.44761,0.44717,0.44707,0.44733,0.44803,0.4491,0.45055,0.45245,0.45465,0.4573,0.46015,0.46336,0.46678,0.47035,0.47411,0.47795,0.482,0.48594,0.49013,0.49417,0.49817,0.50208,0.5059,0.50968,0.51314,0.51658,0.5198,0.52292,0.52582,0.52872,0.53144,0.53401,0.53656,0.53884,0.54106,0.54309,0.54503,0.5468,0.54838,0.54986,0.55114,0.55234,0.55331,0.55423,0.55496,0.55554,0.55602,0.55625,0.55641,0.5563,0.55619,0.55593,0.55554,0.55505,0.5542,0.55344,0.55252,0.55142,0.55021,0.54888,0.54739,0.54574,0.54403,0.5422,0.54038,0.5384,0.53643,0.53431,0.53216,0.52982,0.52738,0.52507,0.52267,0.52024,0.51781,0.51537,0.51291,0.51057,0.50824,0.50591,0.50359,0.5013,0.49889,0.49652,0.49415,0.49185,0.48946,0.48704,0.4847,0.48228,0.47996,0.47752,0.47523,0.47293,0.47079,0.46863,0.46649,0.46451,0.46255,0.46064,0.45885,0.45719,0.45557,0.45411,0.45274,0.45156,0.45054,0.44971,0.44915,0.44889,0.44895,0.44938,0.45028,0.45158,0.45343,0.45564,0.4585,0.46206,0.46602,0.4707,0.47567,0.48127,0.487,0.49316,0.49925,0.50573,0.51189,0.51819,0.52424,0.53045,0.5364,0.54247,0.54854,0.55456,0.56038,0.56577,0.57024,0.57359,0.57571,0.5765,0.57647,0.57602,0.57562,0.57572,0.57655,0.57795,0.58014,0.58265,0.58539,0.58776,0.58977,0.59096,0.59164,0.59179,0.59162,0.59126,0.59068,0.59009,0.58936,0.58849,0.58749,0.58657,0.58552,0.58473,0.58417,0.58375,0.58348,0.58325,0.58271,0.58206,0.58085,0.57942,0.57797,0.57662,0.57558,0.57489,0.57455,0.57442,0.57448,0.57455,0.57461,0.57472,0.57456,0.57447,0.5744,0.57431,0.57415,0.57415,0.57431,0.57473,0.57531,0.57624,0.57738,0.57875,0.58059,0.58273,0.5852,0.58793,0.59097,0.59415,0.59757,0.60101,0.60472,0.6083,0.61196,0.61568,0.61955,0.62331,0.62707,0.63076,0.63497,0.63863,0.64282,0.64685,0.65115,0.65527,0.65975,0.66398,0.66836,0.6724,0.67654,0.68041,0.68429,0.68803,0.69173,0.69535,0.699,0.70247,0.70593,0.70923,0.71267,0.71575,0.71855,0.7211,0.72335,0.72527,0.72716,0.72851,0.72958,0.7305,0.73097,0.73124,0.73125,0.73105,0.73082,0.73047
0.040965,0.040792,0.040706,0.040642,0.040633,0.04067,0.040751,0.040927,0.04117,0.041557,0.042084,0.042837,0.043758,0.044991,0.046523,0.048328,0.050512,0.052962,0.055653,0.058731,0.061888,0.065282,0.068889,0.072472,0.076248,0.08003,0.083658,0.087385,0.090908,0.09429,0.097565,0.10056,0.10346,0.1062,0.10862,0.11111,0.1135,0.11582,0.11821,0.12051,0.12289,0.12523,0.12738,0.12954,0.13151,0.13323,0.13475,0.13598,0.13699,0.13772,0.13815,0.13833,0.13821,0.13779,0.13705,0.13602,0.13466,0.13301,0.13119,0.12914,0.12697,0.12481,0.12259,0.1205,0.11846,0.11648,0.11472,0.11302,0.11148,0.11014,0.10888,0.10781,0.10683,0.10598,0.10523,0.10456,0.10394,0.10341,0.10289,0.10245,0.10201,0.10158,0.10118,0.10076,0.10033,0.099895,0.099413,0.098939,0.098405,0.09785,0.097308,0.096741,0.096187,0.095666,0.095136,0.09469,0.094301,0.093977,0.093732,0.093582,0.093527,0.093573,0.093729,0.093987,0.094391,0.094932,0.095606,0.09643,0.097415,0.098551,0.099913,0.10138,0.10306,0.10493,0.10693,0.10915,0.1115,0.11399,0.11668,0.11936,0.12225,0.1252,0.12814,0.13121,0.13422,0.13728,0.1404,0.14333,0.14635,0.14923,0.15197,0.15471,0.15725,0.15976,0.16222,0.16455,0.16692,0.16929,0.17175,0.17449,0.17733,0.18063,0.18429,0.18821,0.19271,0.19751,0.20285,0.20874,0.21489,0.22179,0.22904,0.23665,0.24505,0.25345,0.26243,0.27161,0.28053,0.28989,0.29887,0.30777,0.3166,0.32472,0.33278,0.34021,0.34705,0.35351,0.35919,0.36434,0.36892,0.3727,0.37606,0.37882,0.38115,0.38318,0.38477,0.38623,0.38739,0.38841,0.38923,0.38986,0.39038,0.39073,0.39097,0.39103,0.39099,0.39072,0.39032,0.38976,0.38905,0.38821,0.38726,0.38623,0.38514,0.384,0.38281,0.38162,0.38033,0.37907,0.37776,0.37638,0.37512,0.37373,0.3724,0.37097,0.36957,0.36821,0.36681,0.3655,0.36414,0.3629,0.36169,0.36052,0.35943,0.35842,0.35752,0.35667,0.3559,0.35518,0.35453,0.35396,0.3534,0.35297,0.35256,0.35214,0.3518,0.35143,0.35114,0.35084,0.35055,0.35033,0.35001,0.34971,0.34937,0.34897,0.34854,0.34801,0.34743,0.34676,0.34601,0.34515,0.3442,0.34313,0.34195,0.34068,0.33925,0.33779,0.3362,0.33442,0.33265,0.33071,0.32877,0.3268,0.32471,0.32269,0.3206,0.31852,0.31649,0.31438,0.31239,0.31036,0.30835,0.30645,0.3045,0.30264,0.30081,0.29901,0.29728,0.29557,0.29395,0.29234,0.2908,0.28937,0.28795,0.28667,0.28544,0.28428,0.28328,0.28237,0.28161,0.28096,0.28043,0.28003,0.27972,0.27954,0.27956,0.27978,0.28025,0.2811,0.28227,0.28387,0.28588,0.28826,0.29111,0.2941,0.29742,0.30072,0.30391,0.30706,0.30984,0.31247,0.31468,0.3165,0.31798,0.31904,0.31986,0.32049,0.32101,0.32148,0.32195,0.32245,0.32293,0.32338,0.32379,0.32407,0.32424,0.32433,0.32432,0.32439,0.3246,0.32499,0.32555,0.32637,0.32726,0.32821,0.32917,0.32998,0.33073,0.33136,0.33187,0.3323,0.3326,0.33282,0.33295,0.33303,0.33307,0.33308,0.33305,0.33295,0.33271,0.33226,0.33165,0.3308,0.32978,0.32857,0.32724,0.32578,0.32421,0.32267,0.32103,0.31944,0.31785,0.31631,0.31489,0.3135,0.31228,0.31106,0.30998,0.30898,0.30799,0.30705,0.30605,0.30498,0.30383,0.30259,0.30135,0.29998,0.29864,0.29722,0.2958,0.29435,0.29285,0.29152,0.29025,0.28921,0.28835,0.28775,0.2874,0.28736,0.28764,0.28821,0.28909,0.29031,0.29195,0.29398,0.29662,0.29968,0.30344,0.3077,0.31249,0.31815,0.32438,0.3318,0.34006,0.34962,0.36034,0.37189,0.38478,0.39793,0.41234,0.42685,0.44189,0.45718,0.47168,0.48607,0.49917,0.51198,0.52347,0.53418,0.54419,0.55281,0.5608,0.56754,0.57333,0.57791,0.5814,0.58379,0.58496,0.58507,0.58422,0.5824,0.57982,0.57668,0.57298,0.56913,0.56485,0.56066,0.5562,0.55182,0.54738,0.5429,0.53856,0.53408,0.52985,0.52544,0.52119,0.51685,0.51252,0.50839,0.50418,0.5001,0.49601,0.49208,0.4882,0.48442,0.48081,0.47723,0.47399,0.47083,0.46803,0.46546,0.46314,0.46124,0.45965,0.45845,0.45761,0.45717,0.45706,0.45731,0.45796,0.45904,0.46045,0.46231,0.46454,0.46713,0.4699,0.47315,0.47655,0.48011,0.48389,0.48776,0.49177,0.49573,0.49987,0.50381,0.5079,0.51183,0.51564,0.51942,0.52284,0.52629,0.52948,0.53259,0.53551,0.53834,0.54106,0.54362,0.54612,0.5484,0.55058,0.55258,0.55452,0.55624,0.55785,0.55933,0.56063,0.56181,0.56286,0.56371,0.5644,0.56505,0.56545,0.56564,0.56566,0.56562,0.56542,0.56515,0.56477,0.56428,0.56359,0.56285,0.56193,0.56089,0.55968,0.5583,0.55682,0.55525,0.55357,0.55173,0.5499,0.54799,0.54601,0.54393,0.54178,0.53945,0.53704,0.53456,0.53205,0.52965,0.5272,0.52481,0.52242,0.52009,0.51779,0.51548,0.5131,0.51087,0.50869,0.5064,0.50406,0.50177,0.49941,0.49702,0.49463,0.49224,0.48991,0.48756,0.48531,0.48301,0.48088,0.47871,0.47669,0.47466,0.47274,0.47087,0.46916,0.46752,0.46594,0.46451,0.46312,0.46196,0.46093,0.46015,0.45962,0.45935,0.45948,0.45995,0.46065,0.46202,0.46391,0.46629,0.46918,0.47273,0.47674,0.48144,0.48646,0.49201,0.49769,0.50387,0.50994,0.51634,0.52249,0.52876,0.53479,0.54097,0.54693,0.55295,0.5589,0.56491,0.57074,0.57591,0.58048,0.58379,0.58593,0.58684,0.58689,0.58656,0.58621,0.58632,0.58718,0.5887,0.59084,0.59341,0.59621,0.59861,0.60053,0.60175,0.60235,0.60244,0.60215,0.6018,0.6012,0.60055,0.59982,0.59902,0.59803,0.59703,0.59615,0.5953,0.59483,0.59447,0.59414,0.59391,0.59351,0.59282,0.59163,0.59019,0.5887,0.58729,0.58622,0.58556,0.58514,0.58504,0.58506,0.58526,0.58532,0.58529,0.58526,0.58514,0.58507,0.58493,0.58487,0.58491,0.58498,0.58545,0.58594,0.58686,0.58791,0.58931,0.59109,0.59322,0.59553,0.59833,0.60134,0.60449,0.60793,0.61137,0.615,0.61851,0.62227,0.6259,0.62975,0.63345,0.6373,0.64095,0.64503,0.64874,0.65281,0.65694,0.66123,0.66531,0.66977,0.67402,0.67828,0.68223,0.68639,0.69021,0.69425,0.69784,0.70172,0.70538,0.70899,0.71252,0.71619,0.71946,0.72255,0.72559,0.72845,0.73104,0.73331,0.73534,0.73704,0.73864,0.73969,0.74044,0.74099,0.7415,0.74148,0.74136,0.74087,0.74048
0.053086,0.05295,0.052838,0.052786,0.052789,0.052849,0.052933,0.053138,0.053467,0.053898,0.054551,0.055393,0.056459,0.057901,0.059654,0.061739,0.064211,0.067029,0.070087,0.073559,0.077162,0.080951,0.085034,0.089053,0.093317,0.097579,0.10165,0.10588,0.10985,0.11371,0.11743,0.12085,0.1242,0.12735,0.13015,0.13302,0.13579,0.13846,0.14121,0.14385,0.14655,0.14923,0.15164,0.15406,0.15623,0.15815,0.15984,0.16118,0.16225,0.16303,0.16348,0.1636,0.16343,0.1629,0.16202,0.16081,0.15927,0.15737,0.15533,0.15301,0.15057,0.14816,0.14566,0.14334,0.14104,0.13885,0.13687,0.13499,0.13326,0.13176,0.13034,0.12912,0.12801,0.12703,0.12618,0.12541,0.12472,0.1241,0.12354,0.12304,0.12256,0.1221,0.12167,0.12121,0.12075,0.12028,0.11978,0.11925,0.11868,0.11806,0.11747,0.11683,0.11622,0.11561,0.11504,0.11454,0.11412,0.11374,0.1135,0.11334,0.11329,0.11335,0.11354,0.11385,0.11433,0.11495,0.11573,0.11668,0.11781,0.11911,0.12065,0.12231,0.12425,0.12638,0.12868,0.13121,0.13391,0.13676,0.13986,0.14291,0.14625,0.14967,0.15305,0.1566,0.16008,0.16359,0.16719,0.17056,0.17402,0.17736,0.18048,0.18362,0.18651,0.1894,0.1922,0.19488,0.19763,0.2004,0.20323,0.20637,0.20964,0.21344,0.21766,0.22219,0.22742,0.23294,0.23904,0.24585,0.25295,0.2609,0.26929,0.27805,0.28764,0.29721,0.3074,0.31778,0.32783,0.33832,0.34832,0.35821,0.36798,0.37696,0.38575,0.3939,0.40135,0.40833,0.41444,0.41994,0.42484,0.42892,0.43259,0.43558,0.4382,0.44045,0.44226,0.44388,0.44517,0.44627,0.44716,0.44789,0.44844,0.44886,0.44911,0.44917,0.44907,0.44878,0.44833,0.44773,0.44699,0.44613,0.44518,0.44412,0.44305,0.4419,0.44065,0.43939,0.43801,0.43667,0.43516,0.43358,0.43205,0.43048,0.42892,0.42731,0.42567,0.42411,0.42256,0.42106,0.41956,0.41814,0.41683,0.41557,0.41439,0.4133,0.41234,0.41145,0.41059,0.40983,0.40915,0.40856,0.408,0.40749,0.4071,0.40662,0.40622,0.40586,0.40548,0.40514,0.4048,0.40446,0.40414,0.40376,0.4034,0.40294,0.40242,0.40186,0.40115,0.40038,0.39955,0.39859,0.39753,0.39634,0.395,0.39358,0.39202,0.39035,0.38858,0.38662,0.38468,0.38257,0.38042,0.37826,0.37596,0.37376,0.37146,0.36918,0.36698,0.36465,0.36248,0.36026,0.35807,0.35601,0.3539,0.35188,0.34985,0.34787,0.346,0.34411,0.34234,0.34058,0.33891,0.33733,0.33579,0.33441,0.33308,0.33186,0.33081,0.32986,0.32911,0.32849,0.32802,0.32768,0.32746,0.32736,0.3275,0.3279,0.32855,0.32966,0.33112,0.33305,0.33541,0.33817,0.34144,0.3449,0.34867,0.35239,0.35602,0.35956,0.36266,0.36557,0.36803,0.37006,0.3717,0.37289,0.37381,0.37456,0.3752,0.37583,0.37642,0.37702,0.3776,0.37813,0.3786,0.37888,0.37905,0.3791,0.37906,0.3791,0.37931,0.3797,0.38031,0.38112,0.38206,0.38302,0.384,0.38483,0.38559,0.3862,0.3867,0.38711,0.38739,0.38756,0.38764,0.38767,0.38769,0.38764,0.38758,0.38743,0.38714,0.38665,0.38598,0.38504,0.38396,0.38266,0.38121,0.37966,0.37795,0.37628,0.37453,0.37281,0.37107,0.36939,0.36783,0.36632,0.36496,0.36365,0.36243,0.36135,0.36025,0.35919,0.35803,0.35685,0.35557,0.35419,0.35282,0.35134,0.34986,0.34825,0.34666,0.345,0.34337,0.34192,0.34052,0.33939,0.33847,0.33781,0.3375,0.33753,0.33784,0.33852,0.33961,0.3411,0.34305,0.34545,0.34843,0.35183,0.35604,0.36088,0.36638,0.37292,0.38011,0.38859,0.39799,0.40884,0.4209,0.43378,0.44817,0.46277,0.47862,0.49443,0.51065,0.52701,0.54246,0.55776,0.57159,0.58492,0.59702,0.60808,0.61831,0.62713,0.63527,0.64205,0.64793,0.65258,0.65602,0.65837,0.65962,0.65972,0.65887,0.65704,0.65449,0.65129,0.64765,0.64378,0.63951,0.6352,0.63072,0.62631,0.62174,0.61721,0.61289,0.60834,0.60402,0.59959,0.59528,0.59092,0.58654,0.5824,0.57801,0.57383,0.56961,0.56558,0.56148,0.55748,0.55368,0.54992,0.54646,0.54309,0.54009,0.5373,0.53483,0.53279,0.53108,0.52973,0.52875,0.52819,0.52799,0.5282,0.52888,0.52999,0.53141,0.53338,0.53569,0.53846,0.5414,0.54479,0.54833,0.55205,0.55603,0.56002,0.56425,0.56836,0.57265,0.57685,0.58099,0.58505,0.58891,0.59265,0.59602,0.59928,0.6023,0.6053,0.60796,0.61058,0.61313,0.61546,0.61774,0.61981,0.62184,0.62376,0.62558,0.62717,0.62869,0.63007,0.63126,0.63247,0.6334,0.63428,0.63496,0.63555,0.63606,0.63633,0.63646,0.63647,0.63636,0.63611,0.63576,0.63532,0.63475,0.63408,0.63316,0.63222,0.63104,0.62979,0.62842,0.62692,0.6254,0.62371,0.62202,0.62023,0.61844,0.61643,0.61436,0.61214,0.6099,0.60758,0.60523,0.60289,0.60059,0.59837,0.59618,0.59397,0.59171,0.58963,0.58738,0.58517,0.58288,0.58057,0.57828,0.57599,0.57358,0.5711,0.56874,0.56624,0.56385,0.56137,0.559,0.55664,0.5545,0.55225,0.55011,0.54801,0.54595,0.54401,0.54219,0.54044,0.5387,0.53717,0.53577,0.53456,0.53356,0.53282,0.53224,0.53202,0.53228,0.53285,0.53395,0.53553,0.53761,0.54033,0.54357,0.54751,0.55185,0.55696,0.56226,0.5682,0.57432,0.58085,0.58724,0.59396,0.60036,0.60694,0.61332,0.61957,0.62547,0.63161,0.63759,0.6436,0.6494,0.65457,0.6591,0.66246,0.66466,0.66576,0.66612,0.66613,0.66618,0.66672,0.66796,0.66979,0.67236,0.67504,0.67792,0.6803,0.68228,0.6832,0.68349,0.68318,0.68259,0.682,0.68132,0.68076,0.68002,0.67928,0.67833,0.67754,0.67682,0.67625,0.67605,0.67613,0.67617,0.67622,0.67603,0.67549,0.67425,0.67282,0.67111,0.66958,0.66833,0.66758,0.66716,0.66696,0.66693,0.66703,0.66696,0.6671,0.66706,0.66699,0.6669,0.66684,0.66671,0.66679,0.66701,0.66738,0.66801,0.66889,0.67012,0.67145,0.67314,0.67521,0.67753,0.68031,0.68324,0.68625,0.68946,0.69294,0.69647,0.70007,0.70386,0.70755,0.71109,0.7148,0.71867,0.72233,0.72636,0.73009,0.73417,0.73832,0.74242,0.74662,0.75105,0.75522,0.75943,0.76351,0.76749,0.77131,0.77527,0.77904,0.78295,0.78633,0.79002,0.79359,0.79707,0.80038,0.8035,0.8065,0.80934,0.81165,0.81385,0.8158,0.81762,0.81883,0.81986,0.82076,0.82122,0.82166,0.82176,0.82149,0.821,0.8205
0.054238,0.054094,0.053975,0.053923,0.053915,0.054004,0.054078,0.054307,0.054652,0.055107,0.055788,0.056676,0.057799,0.059288,0.061144,0.063321,0.065921,0.068875,0.072081,0.075721,0.079478,0.083478,0.087768,0.091959,0.096429,0.10086,0.10512,0.10952,0.11366,0.11768,0.12154,0.12511,0.12858,0.13184,0.1348,0.13782,0.14072,0.1435,0.14639,0.14913,0.15196,0.15474,0.15726,0.15976,0.16203,0.16401,0.16574,0.16713,0.16822,0.16901,0.16944,0.16956,0.16934,0.16877,0.16782,0.16656,0.16492,0.16295,0.16082,0.15842,0.15591,0.15342,0.15085,0.14844,0.14609,0.14383,0.1418,0.13985,0.13808,0.13653,0.13506,0.13381,0.13268,0.13169,0.13081,0.13003,0.12932,0.12871,0.12811,0.12761,0.12711,0.12665,0.12622,0.12575,0.12528,0.12481,0.12428,0.12374,0.12316,0.12253,0.12191,0.12126,0.12062,0.12,0.11941,0.11889,0.11846,0.11808,0.11782,0.11766,0.11762,0.1177,0.11791,0.11824,0.11875,0.11942,0.12023,0.12123,0.12241,0.12379,0.12542,0.12716,0.12919,0.13142,0.1338,0.13647,0.13927,0.14224,0.14546,0.14865,0.15211,0.15565,0.15916,0.16281,0.16643,0.17009,0.17381,0.17732,0.18091,0.18438,0.18763,0.19087,0.19387,0.19686,0.1998,0.20257,0.20544,0.20829,0.21123,0.21448,0.21789,0.22186,0.22623,0.23095,0.2363,0.24202,0.24841,0.25545,0.26277,0.27098,0.27964,0.28866,0.29853,0.30838,0.31883,0.3295,0.33983,0.35056,0.36083,0.37098,0.38102,0.39023,0.3993,0.40764,0.4153,0.42248,0.42875,0.43443,0.43948,0.44365,0.44741,0.4505,0.45319,0.45547,0.45732,0.45895,0.46028,0.4614,0.46231,0.46305,0.46367,0.46409,0.46434,0.46441,0.46434,0.46407,0.46362,0.46303,0.46226,0.46137,0.4604,0.45929,0.45817,0.45696,0.45571,0.45441,0.45303,0.45165,0.45017,0.44868,0.44726,0.44569,0.44415,0.44258,0.44096,0.43941,0.43786,0.43634,0.43484,0.43339,0.43203,0.43069,0.42947,0.4283,0.42724,0.42627,0.4254,0.42457,0.42385,0.42318,0.42258,0.42204,0.42151,0.42103,0.42058,0.4202,0.41982,0.41944,0.4191,0.41875,0.41839,0.41804,0.41764,0.41717,0.41667,0.41608,0.41539,0.41459,0.41374,0.41275,0.41165,0.41046,0.4091,0.40764,0.40605,0.40433,0.4025,0.40052,0.39851,0.39634,0.39413,0.39188,0.38954,0.38727,0.3849,0.38256,0.38028,0.37791,0.37567,0.37338,0.37113,0.369,0.36679,0.36471,0.36262,0.36057,0.35862,0.35668,0.35491,0.35308,0.35134,0.34973,0.34813,0.34668,0.3453,0.34403,0.34292,0.34192,0.34113,0.34049,0.33997,0.33958,0.33935,0.33927,0.3394,0.33978,0.3405,0.34167,0.34319,0.3452,0.3477,0.35057,0.35401,0.35759,0.36151,0.3654,0.36915,0.37283,0.37607,0.37914,0.38167,0.38377,0.38546,0.38669,0.38764,0.38839,0.38905,0.38967,0.39028,0.39089,0.39149,0.39205,0.39255,0.39287,0.39308,0.39317,0.39316,0.39324,0.39345,0.39387,0.39449,0.39533,0.39631,0.3973,0.39832,0.3992,0.39998,0.4006,0.4011,0.40153,0.40178,0.40197,0.40206,0.40207,0.40207,0.40204,0.40195,0.40178,0.40146,0.40095,0.40028,0.39927,0.39813,0.39681,0.3953,0.39368,0.39194,0.3902,0.38835,0.38657,0.38479,0.38304,0.38144,0.37989,0.37851,0.37715,0.37592,0.37479,0.37364,0.37256,0.37137,0.37013,0.36881,0.36738,0.36594,0.36439,0.36287,0.36123,0.3596,0.35793,0.35624,0.35477,0.35333,0.35217,0.35121,0.35056,0.35024,0.35025,0.3506,0.35133,0.35245,0.35397,0.35598,0.35843,0.36153,0.36512,0.36953,0.37456,0.38023,0.38695,0.39433,0.40303,0.41271,0.42387,0.43623,0.44948,0.46422,0.47921,0.49538,0.51164,0.52828,0.54508,0.56089,0.57648,0.59063,0.60431,0.61657,0.6278,0.63831,0.64726,0.65554,0.66245,0.66839,0.673,0.67649,0.67886,0.68012,0.68031,0.67948,0.67763,0.67509,0.67198,0.66824,0.6645,0.66017,0.65593,0.65134,0.6469,0.6424,0.63779,0.6333,0.62881,0.62443,0.61989,0.61553,0.61117,0.60676,0.6024,0.59805,0.59389,0.58955,0.58539,0.58125,0.57718,0.57325,0.56942,0.56592,0.56249,0.5594,0.55655,0.55407,0.55193,0.55007,0.54874,0.54773,0.54719,0.54697,0.54722,0.54786,0.54892,0.55043,0.55249,0.55477,0.55758,0.56069,0.56408,0.56762,0.57149,0.57558,0.57959,0.58392,0.58815,0.59254,0.59673,0.60108,0.6051,0.6089,0.61275,0.61626,0.61961,0.62271,0.62574,0.62844,0.63111,0.63366,0.63603,0.63833,0.64039,0.64242,0.64434,0.64613,0.64778,0.64931,0.65065,0.65188,0.65303,0.65407,0.65494,0.65565,0.65627,0.65665,0.65694,0.65706,0.65708,0.65699,0.65668,0.65636,0.65597,0.6553,0.65457,0.65369,0.65283,0.65161,0.65033,0.64893,0.64741,0.64585,0.64415,0.64248,0.64067,0.63887,0.63691,0.63487,0.63262,0.6303,0.62794,0.62558,0.62327,0.62093,0.61874,0.61643,0.61427,0.61208,0.60996,0.60768,0.60545,0.60315,0.60084,0.59848,0.59606,0.59362,0.59112,0.58872,0.58618,0.58374,0.58114,0.57873,0.57644,0.57409,0.57182,0.56957,0.56743,0.56539,0.56342,0.56142,0.55961,0.55788,0.55633,0.55485,0.55353,0.55241,0.55164,0.55105,0.55084,0.55096,0.55147,0.55245,0.55402,0.55608,0.55881,0.56198,0.56597,0.57039,0.5756,0.58108,0.58706,0.59329,0.59997,0.60658,0.61352,0.62011,0.62681,0.63315,0.63964,0.64595,0.65221,0.65836,0.66439,0.67029,0.6757,0.68026,0.68375,0.68606,0.68723,0.68767,0.68771,0.68783,0.68833,0.68961,0.69146,0.69404,0.69686,0.6998,0.70221,0.70401,0.70506,0.70533,0.70497,0.70443,0.70372,0.70294,0.70211,0.70132,0.70069,0.69974,0.699,0.69816,0.69773,0.69753,0.69756,0.6976,0.69768,0.6976,0.69711,0.69588,0.69435,0.69259,0.691,0.68963,0.6888,0.68837,0.68827,0.68823,0.6883,0.68843,0.68845,0.68857,0.68837,0.688,0.68796,0.6879,0.68796,0.68826,0.68865,0.68934,0.69032,0.69138,0.69274,0.69449,0.69662,0.69906,0.70174,0.70462,0.70776,0.71111,0.71447,0.71805,0.72172,0.72542,0.72903,0.73282,0.73652,0.74033,0.74402,0.74797,0.75168,0.75564,0.75974,0.76394,0.76808,0.77236,0.77649,0.78068,0.78479,0.78889,0.7927,0.79656,0.80014,0.80395,0.80741,0.81116,0.81468,0.8181,0.82129,0.82451,0.82734,0.83006,0.8325,0.83469,0.8369,0.83837,0.83955,0.84058,0.84136,0.84193,0.84232,0.84237,0.84219,0.84178,0.84137
0.046986,0.046825,0.046724,0.046716,0.046702,0.046763,0.046821,0.047046,0.047361,0.047748,0.048332,0.049115,0.050104,0.051427,0.053036,0.054957,0.057234,0.059814,0.062647,0.065841,0.06913,0.072623,0.07638,0.080064,0.083955,0.087831,0.091561,0.095401,0.099028,0.10258,0.10601,0.10915,0.11223,0.11512,0.11773,0.1204,0.12298,0.12547,0.12803,0.13048,0.13298,0.13544,0.13769,0.1399,0.1419,0.14365,0.14517,0.14637,0.14732,0.14799,0.14835,0.14842,0.14819,0.14766,0.1468,0.14567,0.14421,0.14246,0.14059,0.13847,0.13624,0.13403,0.13177,0.12963,0.12755,0.12553,0.12373,0.122,0.12043,0.11904,0.11774,0.11662,0.11561,0.11471,0.11393,0.11323,0.11261,0.11206,0.11154,0.11108,0.11064,0.11023,0.10984,0.10941,0.10901,0.10858,0.10811,0.10762,0.10709,0.10652,0.10596,0.10537,0.10479,0.10424,0.10369,0.10322,0.1028,0.10245,0.10218,0.10203,0.10196,0.102,0.10217,0.10244,0.10287,0.10344,0.10414,0.105,0.10605,0.10724,0.10867,0.1102,0.11199,0.11395,0.11605,0.1184,0.12087,0.12349,0.12635,0.12919,0.13227,0.13542,0.13853,0.1418,0.14502,0.14827,0.1516,0.15468,0.15789,0.16098,0.16389,0.16679,0.16948,0.17214,0.17474,0.17721,0.17973,0.18226,0.18482,0.1877,0.19068,0.19418,0.19806,0.20221,0.20697,0.21205,0.21772,0.22397,0.23044,0.23768,0.2454,0.25343,0.26224,0.27101,0.2804,0.28995,0.29923,0.3089,0.31815,0.32731,0.33637,0.34468,0.35285,0.36039,0.36733,0.37385,0.37953,0.38469,0.3893,0.3931,0.39654,0.39937,0.40181,0.40394,0.40565,0.40714,0.40835,0.40941,0.41025,0.41093,0.41149,0.41189,0.41217,0.41228,0.41223,0.41204,0.41168,0.41118,0.41054,0.40976,0.40891,0.40795,0.40697,0.40591,0.40481,0.40369,0.40247,0.40123,0.39994,0.3986,0.39731,0.39591,0.39451,0.3931,0.3916,0.39022,0.38874,0.38737,0.38597,0.3846,0.38334,0.38209,0.38096,0.37987,0.37887,0.37799,0.37712,0.37639,0.37576,0.37513,0.37459,0.3741,0.37365,0.3732,0.37282,0.37249,0.37216,0.37187,0.37155,0.37123,0.37094,0.3706,0.37025,0.36986,0.36939,0.36888,0.36827,0.36756,0.3668,0.36589,0.36492,0.36383,0.36257,0.36127,0.35978,0.35821,0.35657,0.35473,0.35288,0.35089,0.34887,0.34684,0.34471,0.3426,0.34044,0.33829,0.33618,0.33401,0.33198,0.32988,0.32783,0.32586,0.32383,0.32195,0.32004,0.31817,0.31639,0.31461,0.31294,0.31127,0.30967,0.30819,0.30672,0.30538,0.3041,0.30291,0.30185,0.30093,0.30017,0.29951,0.29901,0.29862,0.29835,0.29824,0.29834,0.29868,0.2993,0.30028,0.30157,0.30333,0.30552,0.30805,0.31108,0.31424,0.31769,0.32111,0.32438,0.32753,0.33026,0.33282,0.3349,0.33661,0.33791,0.33883,0.3395,0.34001,0.3405,0.34097,0.34145,0.34195,0.34249,0.34299,0.34345,0.34387,0.34419,0.34441,0.34462,0.34483,0.34519,0.3457,0.34631,0.34715,0.34804,0.34893,0.34981,0.35052,0.35114,0.35163,0.35204,0.35236,0.3526,0.3528,0.35292,0.35301,0.3531,0.35316,0.35316,0.3531,0.35286,0.35244,0.35184,0.35094,0.34991,0.34869,0.34731,0.34585,0.34426,0.34269,0.341,0.33939,0.33778,0.3362,0.33476,0.33336,0.33208,0.33087,0.3298,0.32878,0.32774,0.32679,0.32574,0.32464,0.32349,0.3222,0.32092,0.31951,0.31813,0.31662,0.31516,0.31364,0.31212,0.31075,0.30944,0.30835,0.30749,0.30686,0.30651,0.30652,0.30682,0.30742,0.30839,0.30973,0.31149,0.31366,0.31643,0.31962,0.32352,0.328,0.33301,0.33896,0.34549,0.35327,0.36188,0.37178,0.38279,0.39461,0.40775,0.42115,0.4357,0.45023,0.46522,0.48039,0.4947,0.50893,0.52186,0.53441,0.54569,0.55611,0.56582,0.57417,0.58191,0.58844,0.59413,0.59853,0.60197,0.60428,0.60543,0.60554,0.60473,0.60298,0.6005,0.59745,0.59398,0.59023,0.58614,0.5821,0.57785,0.57363,0.56937,0.56512,0.561,0.55674,0.55275,0.54859,0.54454,0.5404,0.53637,0.53243,0.52834,0.52445,0.5205,0.51672,0.51287,0.50912,0.50556,0.50206,0.49881,0.49569,0.49289,0.49026,0.488,0.48605,0.48441,0.48319,0.48229,0.4818,0.48163,0.4819,0.48252,0.4836,0.48497,0.48683,0.48896,0.49158,0.49434,0.49752,0.50085,0.50434,0.50807,0.51179,0.51581,0.51968,0.5238,0.52771,0.5317,0.53552,0.5392,0.54276,0.54603,0.54927,0.55219,0.55507,0.55764,0.56021,0.5626,0.56487,0.5671,0.56915,0.5711,0.57293,0.57472,0.57627,0.57775,0.57894,0.58015,0.58126,0.58224,0.58312,0.58381,0.5844,0.58484,0.58513,0.58536,0.58532,0.58527,0.58503,0.58475,0.58431,0.58376,0.58313,0.58227,0.5814,0.58032,0.57912,0.57777,0.57638,0.57486,0.57321,0.5716,0.56992,0.56819,0.56626,0.56434,0.56218,0.56003,0.55782,0.55562,0.55338,0.5512,0.5492,0.54697,0.54497,0.54279,0.54081,0.53866,0.53655,0.53434,0.53214,0.52994,0.52779,0.52552,0.52319,0.52086,0.51858,0.51633,0.51397,0.51175,0.50945,0.50739,0.5053,0.50332,0.50128,0.49934,0.49749,0.49574,0.49406,0.49241,0.4909,0.48947,0.48824,0.48714,0.48632,0.48568,0.48534,0.48536,0.48576,0.4866,0.48787,0.48967,0.49198,0.49478,0.49819,0.50209,0.50663,0.51152,0.51707,0.52271,0.52873,0.5347,0.54102,0.54701,0.55323,0.55902,0.56494,0.57057,0.57646,0.58222,0.58805,0.59365,0.59873,0.60308,0.6063,0.60834,0.60907,0.60914,0.60872,0.60834,0.6084,0.60906,0.61052,0.61253,0.61485,0.61747,0.61971,0.62149,0.62268,0.6233,0.62333,0.62311,0.62275,0.62214,0.6216,0.62089,0.62012,0.61913,0.61814,0.6173,0.61668,0.61615,0.61588,0.61556,0.61535,0.61492,0.61426,0.61316,0.61187,0.6104,0.60913,0.60812,0.60743,0.60698,0.60691,0.60691,0.60703,0.60699,0.60706,0.60699,0.60686,0.60666,0.60656,0.60651,0.60653,0.60666,0.60701,0.60759,0.60846,0.60947,0.61079,0.61253,0.6145,0.61682,0.61952,0.62227,0.62528,0.62848,0.63175,0.63523,0.63857,0.64212,0.64569,0.64922,0.65283,0.65654,0.66013,0.66384,0.66751,0.67132,0.67531,0.67932,0.68333,0.6876,0.6916,0.6957,0.69969,0.70361,0.70743,0.71101,0.7147,0.7181,0.72192,0.72515,0.72864,0.73174,0.73496,0.73785,0.74078,0.74359,0.74603,0.74801,0.74967,0.75122,0.75252,0.75366,0.7545,0.75504,0.7553,0.75537,0.75522,0.75492,0.75451
0.045524,0.045319,0.045234,0.045233,0.045229,0.045267,0.045378,0.045618,0.045945,0.046351,0.046955,0.047782,0.048803,0.050166,0.051846,0.053837,0.056207,0.058884,0.061823,0.065141,0.068557,0.072184,0.076088,0.079918,0.083952,0.087985,0.091856,0.095851,0.099627,0.10331,0.10687,0.11015,0.11337,0.1164,0.11912,0.12194,0.12465,0.12724,0.12992,0.13247,0.13508,0.13764,0.13996,0.14226,0.14434,0.14614,0.1477,0.14894,0.14991,0.1506,0.15094,0.151,0.15076,0.1502,0.14929,0.14811,0.14661,0.14479,0.14284,0.14066,0.13837,0.1361,0.13375,0.13155,0.12941,0.12732,0.12546,0.12367,0.12204,0.1206,0.11926,0.1181,0.11705,0.11612,0.11532,0.1146,0.11395,0.11339,0.11285,0.11238,0.11193,0.11152,0.11112,0.11069,0.11026,0.10983,0.10933,0.10885,0.1083,0.1077,0.10713,0.10651,0.10591,0.10534,0.10478,0.10428,0.10385,0.10349,0.10323,0.10306,0.10299,0.10304,0.10323,0.10351,0.10395,0.10455,0.10529,0.10619,0.10728,0.10852,0.11002,0.11162,0.11347,0.11553,0.11772,0.12017,0.12275,0.1255,0.12848,0.13144,0.13466,0.13795,0.14119,0.14462,0.14797,0.15139,0.15485,0.15813,0.16147,0.16471,0.16776,0.17081,0.17364,0.17644,0.17918,0.18176,0.18442,0.18702,0.18974,0.19275,0.1959,0.19956,0.20363,0.20801,0.21304,0.2184,0.22436,0.23092,0.23775,0.24546,0.25359,0.26209,0.27139,0.28068,0.29059,0.3007,0.3105,0.32071,0.33051,0.34019,0.34972,0.35847,0.36715,0.37511,0.38244,0.38928,0.39531,0.40075,0.40561,0.40964,0.41325,0.41627,0.41881,0.42106,0.42285,0.42445,0.42571,0.42683,0.42773,0.42845,0.42905,0.42946,0.42976,0.42986,0.42984,0.42964,0.42927,0.42879,0.42812,0.42735,0.42647,0.42543,0.42434,0.42319,0.42194,0.42064,0.41926,0.41788,0.41644,0.4149,0.41344,0.41195,0.41045,0.40894,0.40744,0.40605,0.40458,0.40321,0.40189,0.40058,0.39937,0.39822,0.39716,0.39618,0.39524,0.39441,0.3936,0.39289,0.39227,0.39171,0.39118,0.39074,0.39028,0.38982,0.38943,0.38904,0.38867,0.3883,0.38798,0.38765,0.3873,0.38691,0.38651,0.38606,0.38555,0.38496,0.3843,0.38355,0.38271,0.38174,0.38069,0.37951,0.37819,0.37677,0.37522,0.37357,0.37179,0.36985,0.36789,0.36578,0.36366,0.36148,0.35919,0.35699,0.35469,0.35246,0.35026,0.34797,0.34581,0.3436,0.34142,0.33935,0.33723,0.33521,0.33319,0.33123,0.32933,0.32745,0.3257,0.32393,0.32226,0.32067,0.31911,0.31772,0.31637,0.31513,0.31405,0.31308,0.31228,0.31162,0.31113,0.31076,0.31053,0.31045,0.31059,0.31102,0.31169,0.3128,0.31422,0.31611,0.31845,0.32117,0.32439,0.32775,0.33136,0.33498,0.33847,0.34181,0.34471,0.34738,0.34954,0.35132,0.35269,0.35364,0.35439,0.35494,0.35546,0.356,0.35654,0.3571,0.35769,0.35824,0.35877,0.35924,0.35961,0.35989,0.36014,0.36043,0.36081,0.36135,0.362,0.36282,0.36373,0.36464,0.36551,0.36624,0.36687,0.36737,0.36776,0.36811,0.36832,0.36853,0.36868,0.36879,0.36891,0.36898,0.36897,0.3689,0.36867,0.36821,0.3676,0.36669,0.3656,0.36431,0.3629,0.36134,0.35969,0.35805,0.35629,0.3546,0.35291,0.35124,0.34974,0.34827,0.34692,0.34567,0.34451,0.34343,0.3424,0.3414,0.34028,0.33915,0.33792,0.33657,0.33522,0.33372,0.33223,0.33069,0.32913,0.32749,0.32589,0.32446,0.32309,0.32194,0.32103,0.32037,0.32002,0.32002,0.32033,0.32098,0.32204,0.32346,0.32533,0.32763,0.33055,0.33393,0.33813,0.34292,0.34832,0.35465,0.36163,0.36988,0.37904,0.38958,0.40129,0.41387,0.42784,0.442,0.45729,0.47271,0.48846,0.50438,0.51944,0.53434,0.54778,0.56081,0.57243,0.58318,0.59316,0.60182,0.60975,0.61646,0.62223,0.62673,0.63019,0.63259,0.63378,0.63393,0.63311,0.63132,0.62889,0.6258,0.62222,0.61846,0.61432,0.61018,0.60585,0.60158,0.59721,0.59287,0.58867,0.58434,0.58019,0.5759,0.57178,0.56763,0.56342,0.55935,0.55518,0.55117,0.54704,0.54312,0.53921,0.53532,0.53165,0.52798,0.5246,0.52133,0.51837,0.51565,0.51325,0.51121,0.5095,0.50822,0.50728,0.50683,0.50669,0.50693,0.50758,0.50865,0.51009,0.51206,0.5143,0.51701,0.51987,0.5232,0.52671,0.53043,0.53432,0.53825,0.54243,0.54652,0.55075,0.55484,0.55895,0.56296,0.56678,0.57046,0.5738,0.57709,0.58015,0.58302,0.58566,0.58825,0.59071,0.59285,0.59508,0.59715,0.59917,0.60098,0.60279,0.60438,0.60592,0.60726,0.60852,0.6096,0.61059,0.61151,0.61224,0.61285,0.61325,0.61358,0.61377,0.61376,0.61372,0.61356,0.61324,0.61283,0.61234,0.61175,0.611,0.61005,0.60892,0.60773,0.60645,0.60501,0.60351,0.60193,0.60038,0.59866,0.59693,0.59502,0.59314,0.591,0.5889,0.58672,0.58452,0.58233,0.58014,0.57803,0.57595,0.57386,0.57178,0.56967,0.56752,0.56539,0.56316,0.56092,0.55867,0.55646,0.5541,0.55174,0.54936,0.54701,0.5447,0.54232,0.54007,0.53772,0.53561,0.53339,0.53131,0.52927,0.52729,0.52536,0.52347,0.52171,0.52005,0.51847,0.51704,0.51573,0.51466,0.51377,0.5132,0.51283,0.51288,0.51334,0.51422,0.51559,0.51755,0.51999,0.52302,0.52672,0.53085,0.53567,0.54076,0.54648,0.55232,0.55862,0.56477,0.57127,0.57737,0.58377,0.58976,0.59581,0.60156,0.60755,0.61338,0.61925,0.62484,0.62997,0.63433,0.63751,0.63953,0.64038,0.64044,0.64006,0.63972,0.63983,0.6406,0.64199,0.64399,0.64628,0.64884,0.65117,0.65312,0.65427,0.65503,0.65514,0.65504,0.65458,0.65421,0.65353,0.65292,0.65214,0.65121,0.65036,0.6496,0.64889,0.64839,0.64799,0.64779,0.64754,0.64708,0.64644,0.64534,0.64404,0.64267,0.64141,0.6404,0.63977,0.63935,0.63921,0.63917,0.63925,0.63936,0.63926,0.63922,0.63912,0.63904,0.63889,0.6388,0.63882,0.63903,0.63941,0.64004,0.64086,0.64186,0.64328,0.64495,0.647,0.64924,0.6519,0.65478,0.65783,0.66106,0.66438,0.66788,0.67133,0.67496,0.67856,0.68238,0.68576,0.68949,0.69312,0.69685,0.70059,0.70464,0.7085,0.71254,0.71662,0.72089,0.72498,0.7291,0.73312,0.73707,0.74082,0.74461,0.74808,0.75182,0.75518,0.75869,0.76203,0.7655,0.76857,0.7717,0.77448,0.77716,0.77964,0.78176,0.78355,0.78515,0.7865,0.78757,0.78836,0.78874,0.78916,0.78936,0.78937,0.78891,0.78837
0.046162,0.045994,0.045917,0.045893,0.045891,0.045958,0.046047,0.046278,0.04661,0.047055,0.047676,0.048527,0.049571,0.050991,0.052714,0.054733,0.057155,0.059873,0.062848,0.066193,0.069638,0.073283,0.077184,0.081025,0.085044,0.08908,0.092922,0.096896,0.10065,0.10429,0.10784,0.1111,0.11427,0.11727,0.11995,0.12272,0.12538,0.12794,0.13056,0.13308,0.13563,0.13813,0.14039,0.14264,0.14464,0.14638,0.14788,0.14908,0.14999,0.15063,0.15095,0.15097,0.1507,0.15012,0.1492,0.14801,0.1465,0.14469,0.14276,0.14059,0.13832,0.13607,0.13375,0.13159,0.12947,0.12742,0.12558,0.12382,0.12221,0.1208,0.11948,0.11835,0.11732,0.1164,0.11561,0.11489,0.11425,0.11369,0.11316,0.1127,0.11225,0.11183,0.11143,0.11101,0.11059,0.11016,0.10968,0.10919,0.10865,0.10806,0.10748,0.10688,0.10628,0.10572,0.10515,0.10467,0.10424,0.1039,0.10364,0.10348,0.10343,0.1035,0.10367,0.10396,0.10443,0.10503,0.10577,0.10669,0.10777,0.10902,0.11052,0.11211,0.11396,0.116,0.11818,0.12062,0.12318,0.12591,0.12886,0.13179,0.13497,0.13821,0.1414,0.14478,0.14809,0.15143,0.15482,0.15802,0.1613,0.16447,0.16748,0.17046,0.17324,0.176,0.17871,0.18123,0.18384,0.1864,0.18904,0.19199,0.19508,0.19871,0.2027,0.20698,0.21186,0.21708,0.22287,0.22928,0.23586,0.24331,0.25119,0.2594,0.26838,0.27731,0.28684,0.29652,0.30594,0.31572,0.3251,0.33436,0.34351,0.3519,0.3602,0.36784,0.37485,0.38146,0.38721,0.39244,0.39709,0.40094,0.40442,0.40727,0.40973,0.41184,0.41356,0.4151,0.41632,0.41734,0.41823,0.41894,0.41951,0.41995,0.4202,0.42031,0.42027,0.42009,0.41972,0.41924,0.41859,0.41781,0.41693,0.41592,0.41489,0.41378,0.41264,0.41147,0.41024,0.40902,0.40773,0.40641,0.40515,0.40378,0.40243,0.40107,0.39968,0.39831,0.39687,0.39546,0.39406,0.39266,0.39135,0.39005,0.38882,0.38769,0.38658,0.3856,0.38464,0.38378,0.38308,0.38234,0.38172,0.38115,0.3806,0.38014,0.3797,0.37927,0.37892,0.37858,0.37823,0.37794,0.37758,0.37723,0.37688,0.37645,0.37599,0.37545,0.37481,0.3741,0.37328,0.37238,0.37138,0.37025,0.369,0.36767,0.36617,0.36459,0.36289,0.36103,0.35916,0.35713,0.3551,0.353,0.35085,0.34876,0.34656,0.34438,0.34228,0.34006,0.33799,0.33587,0.33377,0.33178,0.32974,0.3278,0.32588,0.32398,0.32217,0.32036,0.31867,0.31699,0.31537,0.31384,0.31235,0.31101,0.3097,0.3085,0.30745,0.3065,0.30575,0.3051,0.30458,0.30423,0.304,0.30393,0.30406,0.30446,0.30512,0.30618,0.30756,0.30939,0.31162,0.31421,0.31729,0.3205,0.32399,0.32742,0.33069,0.33387,0.33665,0.33924,0.34134,0.34304,0.34438,0.34529,0.346,0.34654,0.34702,0.34754,0.34805,0.34862,0.34919,0.34974,0.35024,0.35064,0.35096,0.35119,0.35138,0.3516,0.35192,0.35241,0.35304,0.35384,0.35471,0.35558,0.35641,0.35709,0.3577,0.35818,0.35856,0.35883,0.35906,0.35923,0.35934,0.35943,0.35952,0.35955,0.35956,0.35947,0.35921,0.3588,0.35821,0.35732,0.35628,0.35505,0.35369,0.35223,0.35061,0.34903,0.34734,0.34573,0.34412,0.34253,0.34107,0.33963,0.33837,0.33716,0.33602,0.33502,0.33397,0.33297,0.33191,0.3308,0.3296,0.32829,0.32697,0.32552,0.3241,0.32259,0.3211,0.3196,0.31809,0.31669,0.31534,0.31427,0.31339,0.31274,0.3124,0.3124,0.31272,0.31336,0.31433,0.31562,0.31734,0.31949,0.32231,0.32561,0.32967,0.3343,0.33943,0.34544,0.35207,0.35989,0.36862,0.37867,0.38981,0.40178,0.41515,0.42867,0.44332,0.45811,0.47337,0.48876,0.5034,0.51789,0.53102,0.54375,0.5552,0.56577,0.57557,0.58412,0.59199,0.59864,0.60437,0.60892,0.61235,0.61472,0.61593,0.61606,0.61528,0.61353,0.61109,0.60805,0.6045,0.6007,0.59661,0.59253,0.58816,0.58393,0.57963,0.57525,0.57117,0.56686,0.56273,0.55848,0.55444,0.55034,0.54621,0.54222,0.53813,0.53417,0.53012,0.52628,0.52239,0.51856,0.51495,0.51138,0.50806,0.50483,0.50201,0.49929,0.49691,0.49491,0.49319,0.49188,0.49095,0.49046,0.49024,0.49035,0.49098,0.49199,0.49329,0.49512,0.49729,0.49985,0.50257,0.50577,0.50916,0.51264,0.51637,0.52021,0.52423,0.52814,0.53229,0.53631,0.54025,0.54409,0.54783,0.55138,0.55464,0.55787,0.56083,0.56364,0.5662,0.56873,0.57113,0.57335,0.57549,0.57757,0.57949,0.58124,0.58289,0.58441,0.58588,0.58723,0.58845,0.58952,0.59043,0.59129,0.592,0.5926,0.59307,0.59334,0.59352,0.59351,0.59344,0.59319,0.59288,0.59247,0.5919,0.59125,0.59047,0.58954,0.58843,0.58726,0.58593,0.5845,0.58304,0.58149,0.57987,0.57819,0.57644,0.57459,0.57268,0.57055,0.56835,0.56619,0.56397,0.56178,0.55959,0.5575,0.5554,0.55337,0.55132,0.54927,0.54711,0.54505,0.54284,0.54064,0.53838,0.53621,0.53394,0.53158,0.5293,0.52694,0.52467,0.52234,0.5201,0.51783,0.5157,0.51356,0.51155,0.50964,0.50774,0.50581,0.50403,0.50233,0.50067,0.49913,0.4977,0.49645,0.4953,0.49446,0.49379,0.4934,0.49343,0.49387,0.49471,0.49601,0.49781,0.50013,0.503,0.50655,0.51044,0.51506,0.52003,0.52556,0.53126,0.53736,0.54332,0.5496,0.55568,0.56179,0.56762,0.5736,0.57933,0.58516,0.59093,0.59672,0.60233,0.60741,0.61173,0.61497,0.61708,0.61796,0.61807,0.61766,0.61735,0.61744,0.61819,0.61956,0.62164,0.62397,0.62653,0.62882,0.63074,0.63182,0.63241,0.63238,0.6321,0.63175,0.63118,0.6306,0.6299,0.62911,0.62808,0.6272,0.6264,0.62572,0.62521,0.62489,0.62463,0.6245,0.62413,0.62345,0.6223,0.62092,0.61938,0.61802,0.61695,0.6163,0.61585,0.61576,0.61567,0.61569,0.61572,0.61571,0.61562,0.61555,0.61526,0.61515,0.61497,0.61498,0.61521,0.61549,0.61599,0.61685,0.61789,0.61933,0.62095,0.62289,0.62512,0.62768,0.63056,0.63354,0.63679,0.64011,0.6436,0.64712,0.65045,0.65413,0.65775,0.66126,0.66496,0.66835,0.67224,0.6759,0.6798,0.68378,0.68782,0.69197,0.69623,0.70037,0.70453,0.70857,0.71259,0.71631,0.72009,0.72366,0.7274,0.73087,0.73444,0.73786,0.74114,0.74426,0.74722,0.7503,0.75312,0.75539,0.75756,0.75936,0.76104,0.76221,0.76334,0.76414,0.76464,0.76493,0.76508,0.76498,0.76473,0.76411
0.048773,0.048599,0.048503,0.048466,0.048444,0.048506,0.048586,0.048803,0.049127,0.049517,0.05013,0.050972,0.052002,0.053402,0.055111,0.057137,0.059547,0.06227,0.065256,0.06862,0.072098,0.075773,0.079713,0.083588,0.087681,0.091774,0.095682,0.099703,0.10351,0.1072,0.11079,0.11409,0.11731,0.12032,0.12306,0.12585,0.12855,0.13114,0.13382,0.13637,0.13898,0.14156,0.14388,0.14621,0.1483,0.15013,0.15172,0.15299,0.15401,0.15472,0.15511,0.15519,0.15498,0.15445,0.15357,0.15242,0.15093,0.14914,0.1472,0.14502,0.14273,0.14047,0.13811,0.13592,0.13376,0.13169,0.12981,0.12801,0.12637,0.12494,0.12359,0.12243,0.12137,0.12044,0.11964,0.1189,0.11824,0.11767,0.11713,0.11666,0.1162,0.11577,0.11536,0.11492,0.1145,0.11404,0.11356,0.11304,0.11249,0.1119,0.11133,0.1107,0.1101,0.10953,0.10896,0.10846,0.10804,0.10767,0.10741,0.10725,0.1072,0.10725,0.10743,0.10773,0.10819,0.10878,0.10952,0.11043,0.11152,0.11277,0.11427,0.11587,0.11774,0.11979,0.12199,0.12445,0.12704,0.12979,0.13277,0.13574,0.13895,0.14222,0.14547,0.14889,0.15223,0.1556,0.15901,0.16226,0.16557,0.16877,0.17178,0.1748,0.17759,0.18038,0.18312,0.1857,0.18835,0.19097,0.19367,0.19666,0.19977,0.20341,0.20744,0.2118,0.21683,0.22219,0.22815,0.23466,0.24152,0.2492,0.25734,0.26583,0.27513,0.28441,0.29435,0.30445,0.31427,0.32454,0.33435,0.34407,0.35362,0.36244,0.37117,0.37916,0.3865,0.39341,0.39947,0.40492,0.4098,0.41381,0.41746,0.42043,0.42299,0.42521,0.42697,0.42856,0.4298,0.43093,0.4318,0.43253,0.43307,0.43351,0.43376,0.43383,0.43377,0.43349,0.43309,0.43254,0.43182,0.43099,0.43009,0.42907,0.42802,0.42691,0.4257,0.42449,0.42317,0.42189,0.42049,0.41901,0.41762,0.41613,0.41467,0.41311,0.41153,0.41002,0.40845,0.40702,0.40552,0.40412,0.40279,0.40148,0.40028,0.39918,0.3982,0.39729,0.39642,0.39565,0.39494,0.39433,0.39384,0.39336,0.3929,0.39246,0.39206,0.39169,0.39133,0.39098,0.39068,0.3904,0.39005,0.38972,0.38935,0.3889,0.38844,0.38786,0.38723,0.38649,0.38566,0.38473,0.38368,0.38252,0.38122,0.37984,0.37828,0.37666,0.37491,0.37301,0.37109,0.36898,0.36687,0.36472,0.36246,0.36029,0.35801,0.35574,0.35359,0.35131,0.34915,0.34697,0.3448,0.34272,0.3406,0.33859,0.33661,0.33465,0.33277,0.33091,0.32916,0.32739,0.32574,0.32416,0.32261,0.32123,0.31986,0.31861,0.31753,0.31652,0.31573,0.31505,0.31452,0.3141,0.31384,0.31371,0.3138,0.31417,0.31476,0.31581,0.31718,0.31901,0.32128,0.32393,0.32706,0.33034,0.3339,0.33743,0.34085,0.34414,0.34702,0.34968,0.35184,0.35358,0.35495,0.35591,0.35662,0.35717,0.35766,0.35813,0.35863,0.35917,0.35971,0.36025,0.36075,0.36116,0.36151,0.36178,0.36201,0.36231,0.3627,0.36328,0.36398,0.36486,0.36583,0.36677,0.36769,0.36847,0.36912,0.36963,0.37007,0.37041,0.37066,0.37088,0.371,0.37113,0.37125,0.3713,0.37135,0.37129,0.37106,0.37065,0.37001,0.36911,0.36805,0.3668,0.36538,0.36385,0.3622,0.36055,0.35879,0.35712,0.35542,0.35376,0.35224,0.35073,0.3494,0.3481,0.34691,0.34585,0.34475,0.34373,0.3426,0.34144,0.34022,0.33888,0.33751,0.33601,0.33455,0.33293,0.33139,0.32977,0.32813,0.32672,0.32536,0.32424,0.32336,0.32273,0.32238,0.32242,0.32276,0.32342,0.32446,0.32588,0.32776,0.33004,0.33291,0.33623,0.34032,0.34503,0.35038,0.35675,0.36376,0.37205,0.38119,0.39166,0.40338,0.41592,0.42993,0.44413,0.45956,0.47501,0.49088,0.50692,0.52205,0.53706,0.55069,0.56389,0.57575,0.58665,0.59678,0.60555,0.61356,0.62033,0.62614,0.63076,0.63425,0.63664,0.63783,0.63795,0.63714,0.63527,0.63275,0.62964,0.62597,0.62216,0.6179,0.61369,0.60924,0.60487,0.60044,0.59591,0.59163,0.58719,0.58293,0.57852,0.57436,0.57008,0.56579,0.56161,0.55737,0.5533,0.54907,0.54513,0.54116,0.53719,0.53346,0.52974,0.52635,0.52308,0.52012,0.5174,0.515,0.51297,0.51124,0.50994,0.50903,0.50856,0.50844,0.50871,0.50937,0.51046,0.51201,0.51395,0.51625,0.51897,0.52193,0.52524,0.52883,0.53256,0.53649,0.54047,0.54468,0.54875,0.55305,0.55715,0.56133,0.5653,0.56916,0.57296,0.57631,0.57969,0.5828,0.58578,0.58843,0.59112,0.59352,0.59583,0.5982,0.60034,0.60237,0.60424,0.6061,0.60777,0.60928,0.61065,0.61192,0.61308,0.61402,0.61489,0.61559,0.61617,0.61663,0.61687,0.61701,0.61704,0.6169,0.61664,0.61627,0.61579,0.61518,0.61438,0.61352,0.61257,0.61141,0.61014,0.60873,0.60727,0.60573,0.60404,0.60238,0.60052,0.5987,0.59665,0.59469,0.59248,0.59032,0.588,0.58569,0.58347,0.5812,0.57909,0.57683,0.57464,0.5724,0.5703,0.56803,0.56587,0.56354,0.56129,0.55902,0.55669,0.55435,0.55194,0.54955,0.5471,0.54471,0.54229,0.53999,0.53759,0.5354,0.53318,0.53108,0.52897,0.52694,0.52499,0.52309,0.52134,0.51963,0.51808,0.5166,0.51538,0.5143,0.51342,0.51279,0.51246,0.51259,0.51305,0.51396,0.51538,0.51732,0.51983,0.52284,0.52656,0.53071,0.53558,0.5408,0.54657,0.55251,0.55887,0.56521,0.57175,0.57804,0.58449,0.59056,0.59675,0.60263,0.60866,0.61457,0.62051,0.62625,0.6314,0.63575,0.63897,0.64103,0.64192,0.64203,0.64165,0.64134,0.64151,0.64228,0.64374,0.64588,0.64827,0.6509,0.65325,0.6551,0.65629,0.65687,0.657,0.65683,0.65655,0.65604,0.65548,0.65475,0.65392,0.65296,0.65216,0.65142,0.65071,0.6502,0.64987,0.64959,0.64934,0.6489,0.64819,0.64711,0.64572,0.64426,0.6429,0.64194,0.6412,0.64075,0.64074,0.64074,0.64074,0.64084,0.64084,0.64074,0.64063,0.64048,0.64035,0.64023,0.64026,0.64053,0.64094,0.64158,0.64236,0.64354,0.64502,0.64676,0.6488,0.65122,0.65397,0.65702,0.66,0.66336,0.66683,0.67044,0.67398,0.67757,0.68137,0.68515,0.68879,0.69268,0.69639,0.70029,0.70404,0.70827,0.71235,0.71654,0.72074,0.72506,0.72925,0.73355,0.73754,0.74155,0.74549,0.74932,0.75303,0.75677,0.76026,0.7639,0.76743,0.77082,0.77414,0.77719,0.78007,0.78307,0.78551,0.78773,0.78977,0.79121,0.79279,0.79367,0.79464,0.79522,0.79545,0.79556,0.79529,0.79491,0.79453
0.045741,0.04558,0.0455,0.045422,0.045416,0.045433,0.045519,0.045679,0.045929,0.046337,0.046893,0.047669,0.04863,0.04995,0.051571,0.053486,0.055768,0.05835,0.061172,0.064359,0.067608,0.071092,0.074797,0.078425,0.082279,0.086124,0.089793,0.093639,0.097239,0.10075,0.10415,0.10728,0.11033,0.1132,0.11579,0.11843,0.12095,0.12338,0.1259,0.12832,0.13079,0.13321,0.13541,0.1376,0.13955,0.14126,0.14275,0.14392,0.14483,0.14549,0.14583,0.14591,0.14569,0.14518,0.14435,0.14324,0.14179,0.14006,0.13819,0.13607,0.13387,0.13166,0.12939,0.12725,0.12516,0.12314,0.12134,0.1196,0.11802,0.11663,0.11532,0.11419,0.11317,0.11225,0.11146,0.11074,0.1101,0.10954,0.10901,0.10856,0.10811,0.10769,0.10728,0.10688,0.10647,0.10606,0.10559,0.10512,0.10459,0.10405,0.10349,0.1029,0.10232,0.10178,0.10124,0.10077,0.10036,0.10002,0.099776,0.099629,0.099564,0.099606,0.09979,0.10007,0.1005,0.10107,0.10176,0.10263,0.10366,0.10483,0.10625,0.10776,0.10953,0.11147,0.11355,0.11588,0.11832,0.1209,0.12374,0.12656,0.1296,0.13271,0.13583,0.13909,0.14228,0.14552,0.14882,0.15193,0.15511,0.15818,0.16108,0.16394,0.1666,0.16924,0.17185,0.17426,0.17678,0.17927,0.18184,0.18473,0.18773,0.19124,0.19511,0.19927,0.20403,0.20912,0.21478,0.22101,0.22746,0.23464,0.24232,0.25035,0.25912,0.26787,0.27724,0.28675,0.29603,0.30571,0.31495,0.3241,0.33315,0.34149,0.34969,0.35724,0.36419,0.37075,0.37648,0.38166,0.38627,0.39007,0.3935,0.3963,0.39872,0.40078,0.40243,0.40391,0.40509,0.40611,0.40691,0.40761,0.40811,0.40851,0.4087,0.40877,0.40869,0.40842,0.40803,0.40747,0.40678,0.40594,0.40507,0.40406,0.40304,0.40193,0.40078,0.39963,0.39835,0.39713,0.39576,0.39444,0.39311,0.3917,0.39032,0.38888,0.38745,0.38605,0.38466,0.38328,0.38191,0.38058,0.37934,0.37809,0.37694,0.37589,0.37485,0.37393,0.37309,0.37238,0.37168,0.37105,0.37046,0.36998,0.36949,0.36901,0.36855,0.36816,0.36779,0.36742,0.36707,0.36674,0.3664,0.36605,0.36566,0.36523,0.36474,0.36421,0.36356,0.36285,0.36204,0.3611,0.36009,0.35898,0.35771,0.35639,0.3549,0.3533,0.35161,0.34977,0.34791,0.34595,0.34393,0.34186,0.33971,0.33762,0.33547,0.33331,0.33123,0.32907,0.32704,0.32495,0.32291,0.32095,0.31897,0.31709,0.31519,0.31334,0.31158,0.30981,0.30814,0.30649,0.30494,0.30347,0.30201,0.3007,0.29944,0.2983,0.2973,0.2964,0.29569,0.29513,0.29469,0.29439,0.29419,0.29417,0.29435,0.29476,0.29545,0.29656,0.29796,0.2998,0.30206,0.30469,0.30781,0.31106,0.31457,0.31803,0.32137,0.32459,0.32742,0.33002,0.33221,0.33402,0.33544,0.33647,0.33728,0.33793,0.33847,0.33904,0.33961,0.34021,0.34079,0.34137,0.34186,0.34224,0.34252,0.34267,0.34278,0.34291,0.34312,0.34353,0.34408,0.3448,0.34563,0.34651,0.34732,0.34803,0.34867,0.34916,0.34957,0.34989,0.35011,0.35028,0.35036,0.3504,0.3504,0.3504,0.35034,0.35021,0.34995,0.3495,0.34888,0.34802,0.347,0.34575,0.34441,0.34298,0.3414,0.33985,0.3382,0.33661,0.33501,0.33346,0.33201,0.33061,0.32934,0.32816,0.32708,0.32606,0.32506,0.32409,0.32302,0.32194,0.32075,0.31948,0.31819,0.31678,0.31539,0.31392,0.31245,0.31094,0.30943,0.30806,0.30677,0.30569,0.30485,0.30425,0.30392,0.30392,0.30422,0.30489,0.30586,0.30719,0.309,0.31119,0.31402,0.31728,0.32125,0.32576,0.33084,0.33686,0.34351,0.35143,0.36021,0.37037,0.38171,0.39381,0.40738,0.42116,0.43614,0.45123,0.46674,0.48246,0.49727,0.51194,0.52531,0.53825,0.54987,0.56062,0.57061,0.5792,0.58718,0.59388,0.59961,0.60412,0.60752,0.60985,0.611,0.61105,0.61019,0.6084,0.60585,0.60269,0.59906,0.59522,0.59096,0.58678,0.58234,0.57795,0.57358,0.56915,0.5649,0.56052,0.55635,0.55216,0.54802,0.54385,0.53968,0.53565,0.53148,0.52746,0.52337,0.51947,0.51551,0.51167,0.50799,0.50436,0.50104,0.4978,0.49484,0.49218,0.48986,0.48785,0.48613,0.48484,0.484,0.48356,0.48338,0.48366,0.48429,0.48535,0.48679,0.48872,0.49096,0.49363,0.4965,0.49979,0.50326,0.50696,0.51083,0.51474,0.51892,0.52301,0.52722,0.5313,0.53543,0.5394,0.54307,0.54681,0.55014,0.5534,0.55634,0.55919,0.56182,0.56434,0.56677,0.56905,0.57127,0.57328,0.57525,0.57707,0.57878,0.58035,0.58161,0.58299,0.58417,0.58521,0.58622,0.58708,0.58774,0.58833,0.58876,0.58906,0.58915,0.58916,0.58908,0.58878,0.58845,0.58804,0.58747,0.58683,0.58598,0.58502,0.58391,0.58271,0.58139,0.57998,0.57846,0.57687,0.57524,0.57359,0.57186,0.56996,0.56807,0.5659,0.56377,0.56159,0.55941,0.55725,0.55509,0.55301,0.55091,0.54887,0.54682,0.54478,0.54266,0.54054,0.53832,0.5361,0.53386,0.5316,0.52937,0.52702,0.52474,0.52231,0.51999,0.51756,0.51527,0.51292,0.51075,0.50849,0.50639,0.50432,0.50233,0.5004,0.49855,0.49683,0.49517,0.49365,0.49225,0.49099,0.48993,0.48905,0.48847,0.48818,0.48827,0.48872,0.48963,0.49101,0.49293,0.49546,0.4984,0.50205,0.50618,0.51103,0.51618,0.52186,0.52777,0.53409,0.54033,0.54682,0.55299,0.55942,0.56533,0.57154,0.57745,0.58346,0.58934,0.59529,0.60099,0.60617,0.61054,0.61385,0.61609,0.61718,0.61736,0.61708,0.61687,0.61716,0.6181,0.61969,0.62188,0.6244,0.62711,0.62948,0.63131,0.63247,0.633,0.63303,0.63263,0.63211,0.63147,0.63082,0.63005,0.62935,0.62835,0.62756,0.62671,0.62611,0.62576,0.62548,0.62549,0.62539,0.62503,0.6244,0.6233,0.6219,0.62026,0.61888,0.61763,0.61689,0.61654,0.61641,0.61635,0.6164,0.61634,0.61634,0.61633,0.61619,0.61611,0.61585,0.61571,0.6158,0.61599,0.61631,0.61686,0.61781,0.61887,0.62031,0.62206,0.62399,0.62631,0.62894,0.63192,0.63498,0.6382,0.64169,0.6453,0.64882,0.65246,0.65601,0.65977,0.66345,0.66721,0.67079,0.67473,0.67851,0.68259,0.68668,0.69094,0.6951,0.69929,0.70352,0.70787,0.71188,0.71603,0.71969,0.72365,0.72739,0.73108,0.73474,0.73818,0.74184,0.74512,0.74847,0.75162,0.75453,0.75724,0.75986,0.76198,0.76386,0.76562,0.76697,0.76786,0.76874,0.76915,0.76949,0.7696,0.76936,0.76906,0.76844
