-0.01244,-0.012514,-0.01255,-0.012519,-0.012468,-0.012356,-0.01219,-0.011983,-0.011684,-0.011296,-0.010783,-0.010145,-0.0092547,-0.0081435,-0.0067644,-0.0051099,-0.0031054,-0.0008332,0.0017189,0.0044811,0.0075286,0.010737,0.014059,0.017548,0.021147,0.024766,0.028403,0.031993,0.035558,0.038995,0.042254,0.045407,0.048351,0.051043,0.053623,0.056079,0.058486,0.06084,0.063163,0.06553,0.06792,0.070239,0.072547,0.07476,0.076837,0.078702,0.080345,0.081766,0.082932,0.083812,0.084445,0.0848,0.084888,0.084693,0.084204,0.08342,0.082332,0.080993,0.07938,0.077586,0.075703,0.073745,0.071806,0.069878,0.068029,0.066308,0.064668,0.063146,0.06179,0.060535,0.059434,0.058457,0.057596,0.056861,0.056217,0.055645,0.055161,0.054731,0.054362,0.054019,0.053708,0.053411,0.053123,0.052834,0.05254,0.052222,0.051881,0.051515,0.051121,0.050704,0.050247,0.049786,0.049332,0.048874,0.048464,0.048086,0.047752,0.047488,0.047302,0.047188,0.04716,0.047229,0.0474,0.047677,0.048064,0.048579,0.049245,0.050037,0.050978,0.052089,0.053321,0.054758,0.056368,0.0581,0.060074,0.062177,0.064445,0.066885,0.069396,0.072128,0.074931,0.077771,0.080771,0.083748,0.086789,0.089844,0.092807,0.09586,0.098818,0.10162,0.1044,0.10699,0.10953,0.11194,0.11423,0.11654,0.11879,0.12101,0.12331,0.12569,0.12835,0.13127,0.13449,0.13819,0.14228,0.14682,0.15183,0.15715,0.16319,0.1696,0.17647,0.18395,0.19181,0.2002,0.20887,0.21754,0.22674,0.23584,0.24487,0.25384,0.2624,0.27088,0.27892,0.28633,0.29341,0.29976,0.30566,0.31085,0.31536,0.31939,0.32281,0.3257,0.32817,0.33024,0.332,0.3335,0.33471,0.33576,0.33662,0.33735,0.33793,0.33837,0.33867,0.33881,0.3388,0.33862,0.33828,0.3378,0.33719,0.33645,0.33562,0.33471,0.33373,0.33267,0.33157,0.3304,0.32921,0.32793,0.32662,0.32529,0.32389,0.3225,0.32109,0.31971,0.31835,0.31695,0.31556,0.31426,0.31298,0.31177,0.31058,0.30943,0.30842,0.30748,0.30657,0.30574,0.30499,0.30435,0.30377,0.30321,0.30274,0.30231,0.30191,0.30158,0.30124,0.30092,0.30062,0.30034,0.30007,0.29982,0.29954,0.29924,0.29893,0.29856,0.29814,0.29767,0.29713,0.29648,0.29575,0.29494,0.29402,0.29298,0.29184,0.29059,0.28922,0.28778,0.28619,0.28449,0.28272,0.28086,0.27895,0.27697,0.27493,0.27292,0.27086,0.26882,0.26676,0.2647,0.2627,0.26069,0.25873,0.25678,0.25486,0.25302,0.25116,0.24938,0.24761,0.24587,0.24423,0.24261,0.24106,0.23954,0.23809,0.23675,0.23548,0.2343,0.23321,0.23225,0.23143,0.23075,0.23017,0.22969,0.22933,0.22911,0.22903,0.22918,0.2296,0.23033,0.23142,0.23287,0.23466,0.23695,0.23956,0.24249,0.24564,0.24883,0.25207,0.25512,0.2579,0.26041,0.26257,0.26438,0.26576,0.2668,0.26753,0.26808,0.26856,0.26898,0.26941,0.26985,0.27028,0.27072,0.27109,0.2714,0.27161,0.2717,0.27175,0.27183,0.272,0.27236,0.2729,0.2736,0.27443,0.27531,0.27617,0.27694,0.27761,0.27817,0.27867,0.27904,0.27935,0.27956,0.27971,0.27979,0.27985,0.2799,0.27991,0.27984,0.27965,0.27925,0.27866,0.27787,0.27687,0.27571,0.27446,0.27304,0.27157,0.27005,0.26851,0.26699,0.26543,0.26396,0.26252,0.26119,0.25996,0.25878,0.25772,0.25669,0.25571,0.25475,0.25374,0.25269,0.25154,0.25037,0.24911,0.24779,0.24645,0.24503,0.2436,0.24213,0.2407,0.23934,0.23808,0.23702,0.23615,0.23551,0.23514,0.23505,0.23527,0.2358,0.23666,0.23787,0.23942,0.24139,0.24382,0.2467,0.25023,0.25423,0.2589,0.26425,0.27042,0.27752,0.28555,0.29484,0.30505,0.31644,0.32875,0.3418,0.35579,0.37011,0.38487,0.39953,0.41384,0.42764,0.44064,0.45298,0.46437,0.47491,0.48449,0.49307,0.50077,0.50742,0.51309,0.51766,0.52116,0.52347,0.52465,0.52476,0.52387,0.52206,0.51955,0.51643,0.51285,0.50899,0.50487,0.50065,0.4963,0.49194,0.48763,0.48334,0.47909,0.47488,0.47073,0.46661,0.46252,0.45848,0.45448,0.45046,0.44649,0.44258,0.43867,0.43484,0.43106,0.42742,0.42392,0.42055,0.41736,0.41436,0.41165,0.40922,0.40705,0.40524,0.4038,0.40271,0.40198,0.40166,0.40172,0.40216,0.40297,0.40422,0.40584,0.40786,0.41021,0.41296,0.41608,0.41944,0.42295,0.42671,0.43056,0.43455,0.43863,0.44279,0.44698,0.45112,0.45523,0.45923,0.46318,0.46693,0.47052,0.47397,0.47724,0.48038,0.48331,0.48614,0.48876,0.49127,0.49364,0.49589,0.49807,0.50008,0.502,0.50378,0.50547,0.50692,0.50829,0.5095,0.51056,0.51151,0.51228,0.5129,0.51339,0.51374,0.5139,0.51392,0.51379,0.5135,0.51314,0.5126,0.51188,0.51107,0.51004,0.50894,0.5076,0.50616,0.50453,0.50282,0.50102,0.49917,0.49724,0.49521,0.49327,0.49115,0.489,0.4867,0.48443,0.48205,0.47969,0.4773,0.47486,0.47252,0.47015,0.46791,0.46559,0.46341,0.46115,0.45896,0.45669,0.45446,0.45214,0.44982,0.44745,0.44499,0.44261,0.44018,0.43783,0.43544,0.43315,0.43085,0.42874,0.42656,0.42451,0.42248,0.42055,0.41866,0.4169,0.41522,0.41361,0.41218,0.41083,0.40966,0.40867,0.40788,0.40732,0.40705,0.40712,0.40754,0.40837,0.4096,0.41135,0.41361,0.41645,0.41979,0.42371,0.42811,0.43301,0.43836,0.444,0.44997,0.45608,0.46247,0.46861,0.47493,0.48106,0.48721,0.49323,0.4994,0.50539,0.51152,0.51736,0.52286,0.52758,0.5313,0.53385,0.53531,0.53582,0.53579,0.53566,0.53573,0.53636,0.53757,0.53941,0.54173,0.54435,0.54683,0.54889,0.55035,0.55121,0.55154,0.55149,0.5512,0.55074,0.5501,0.54938,0.54855,0.54766,0.5467,0.5458,0.54514,0.54454,0.54407,0.5437,0.54342,0.54299,0.54231,0.54135,0.5401,0.53866,0.53726,0.53609,0.53523,0.53464,0.53431,0.53409,0.53398,0.534,0.53389,0.5338,0.53362,0.53346,0.53328,0.53314,0.53307,0.53314,0.53334,0.53377,0.53454,0.53551,0.53675,0.53833,0.54019,0.54229,0.54482,0.54755,0.55051,0.5537,0.55705,0.56044,0.56397,0.56752,0.57123,0.57483,0.57858,0.58218,0.58592,0.58974,0.59368,0.59766,0.60173,0.60589,0.61005,0.6142,0.61832,0.62245,0.62648,0.63038,0.63425,0.63819,0.64176,0.64548,0.64903,0.65255,0.65592,0.65933,0.66272,0.66597,0.66903,0.67186,0.67439,0.67687,0.67888,0.68068,0.68211,0.68331,0.68419,0.68482,0.68522,0.68535,0.68522,0.6849,0.68438
-0.014189,-0.014251,-0.014288,-0.014264,-0.014214,-0.014106,-0.013945,-0.013756,-0.013454,-0.013078,-0.012555,-0.011914,-0.011026,-0.0099253,-0.0085475,-0.006909,-0.0049121,-0.0026449,-9.73e-05,0.0026597,0.0057168,0.0089248,0.012262,0.015767,0.019371,0.022999,0.02665,0.030255,0.033838,0.037283,0.040555,0.043719,0.046667,0.049376,0.051961,0.054424,0.056842,0.059216,0.061558,0.063944,0.066351,0.068674,0.070987,0.073225,0.07531,0.077194,0.078852,0.080284,0.081458,0.082333,0.082971,0.083324,0.083408,0.0832,0.082704,0.081901,0.080797,0.079446,0.077823,0.076034,0.074144,0.072184,0.070236,0.068307,0.066451,0.064717,0.063062,0.06153,0.060165,0.058903,0.057803,0.056823,0.055961,0.055219,0.054576,0.054005,0.053523,0.053089,0.052719,0.052369,0.052051,0.051753,0.051456,0.051169,0.050871,0.050556,0.050209,0.049831,0.049434,0.049011,0.048555,0.048093,0.047636,0.047178,0.046757,0.04637,0.04604,0.045781,0.045589,0.045482,0.045448,0.045519,0.045688,0.045967,0.046375,0.04689,0.047559,0.048361,0.049307,0.050426,0.051663,0.053109,0.05473,0.056474,0.058457,0.060572,0.062858,0.065309,0.067845,0.07058,0.073397,0.076255,0.079261,0.082251,0.085312,0.088373,0.091352,0.094431,0.097415,0.10022,0.10302,0.10563,0.10819,0.11064,0.11295,0.11531,0.11759,0.11986,0.12221,0.12464,0.12733,0.13029,0.13355,0.13728,0.14142,0.14602,0.15111,0.1565,0.16265,0.16917,0.17615,0.18374,0.1917,0.20022,0.20902,0.21782,0.22714,0.23637,0.24552,0.2546,0.26329,0.2719,0.28007,0.28757,0.29474,0.30118,0.30715,0.3124,0.317,0.32108,0.32456,0.32751,0.33005,0.33217,0.33399,0.33553,0.33678,0.33787,0.33875,0.3395,0.3401,0.34056,0.34087,0.34104,0.34104,0.34089,0.34057,0.34011,0.3395,0.33878,0.33796,0.33704,0.33604,0.33498,0.33386,0.3327,0.33146,0.33014,0.32881,0.32746,0.32601,0.3246,0.32317,0.32176,0.32037,0.31899,0.31761,0.31633,0.31507,0.31387,0.31273,0.31162,0.31062,0.30967,0.30879,0.30801,0.30728,0.30664,0.30605,0.30551,0.30506,0.30461,0.30419,0.30382,0.30346,0.30314,0.30282,0.30251,0.30223,0.30195,0.30167,0.30137,0.30103,0.30066,0.30023,0.29973,0.29917,0.29851,0.29778,0.29692,0.296,0.29494,0.29376,0.2925,0.2911,0.28961,0.288,0.28627,0.28446,0.28256,0.28063,0.2786,0.27652,0.27446,0.27236,0.27029,0.26819,0.26609,0.26404,0.26199,0.25999,0.25799,0.25602,0.25413,0.25225,0.25044,0.24863,0.24686,0.24518,0.24352,0.24193,0.24038,0.2389,0.23753,0.23621,0.23502,0.2339,0.2329,0.23205,0.23132,0.23071,0.2302,0.2298,0.22955,0.22945,0.22959,0.22999,0.2307,0.23176,0.2332,0.23501,0.23729,0.23992,0.24285,0.24602,0.24922,0.25248,0.25554,0.25834,0.26083,0.26294,0.26469,0.26603,0.26701,0.2677,0.2682,0.26863,0.26903,0.26944,0.26986,0.27029,0.27072,0.2711,0.27144,0.2717,0.27186,0.272,0.27216,0.27244,0.27288,0.27349,0.27426,0.27514,0.27605,0.27695,0.27774,0.27842,0.27899,0.27947,0.27987,0.28018,0.28042,0.28062,0.28075,0.28085,0.28095,0.28101,0.28098,0.28082,0.28045,0.27986,0.27908,0.27809,0.27692,0.27565,0.2742,0.2727,0.27116,0.26958,0.26802,0.26645,0.26496,0.26351,0.26217,0.26092,0.25972,0.25865,0.25762,0.25665,0.25566,0.25465,0.25361,0.25247,0.25129,0.25002,0.24869,0.24733,0.24588,0.24444,0.24294,0.24149,0.24011,0.23886,0.23778,0.23692,0.23629,0.23591,0.23585,0.23608,0.23663,0.23749,0.23874,0.24033,0.24237,0.24488,0.24783,0.25144,0.25555,0.26034,0.26584,0.27214,0.27942,0.28764,0.29712,0.30754,0.31913,0.33169,0.34497,0.35917,0.37374,0.38869,0.40354,0.41804,0.43205,0.4452,0.4577,0.46919,0.47986,0.48954,0.49823,0.50602,0.51277,0.51854,0.52318,0.52676,0.52909,0.53032,0.53047,0.52958,0.52775,0.5252,0.52207,0.51849,0.5146,0.51044,0.50619,0.50184,0.49745,0.49306,0.48874,0.48444,0.48021,0.47601,0.47184,0.46771,0.4636,0.45957,0.45554,0.45149,0.44753,0.44357,0.43969,0.43587,0.43215,0.4286,0.42519,0.42196,0.41893,0.41616,0.41367,0.41147,0.40961,0.40813,0.40702,0.40625,0.40586,0.40589,0.40631,0.40714,0.40837,0.40998,0.41199,0.41436,0.41712,0.42029,0.42366,0.42722,0.431,0.43486,0.43885,0.44296,0.4471,0.45132,0.4555,0.45967,0.4637,0.46766,0.47144,0.47508,0.47861,0.48191,0.48506,0.48804,0.49091,0.49359,0.49614,0.49855,0.50083,0.50304,0.50508,0.50705,0.50886,0.51055,0.51205,0.51345,0.5147,0.51576,0.51672,0.51753,0.5182,0.51868,0.51908,0.51925,0.51927,0.51916,0.51892,0.51851,0.51795,0.51728,0.51645,0.51542,0.51432,0.51298,0.51154,0.50994,0.5082,0.50635,0.5044,0.50245,0.50042,0.49843,0.4963,0.49416,0.49185,0.48956,0.48714,0.48477,0.48235,0.47991,0.47753,0.47514,0.47288,0.47054,0.46832,0.466,0.46382,0.46155,0.45929,0.45691,0.45453,0.45217,0.44971,0.44731,0.44489,0.4425,0.44011,0.43787,0.43554,0.43341,0.43126,0.42922,0.4272,0.42528,0.4234,0.42165,0.41994,0.41837,0.41688,0.41554,0.41434,0.41327,0.41243,0.41185,0.41155,0.41158,0.41198,0.41282,0.41405,0.41586,0.41813,0.42098,0.42434,0.42824,0.43267,0.43757,0.44299,0.44863,0.45469,0.46092,0.46739,0.47363,0.48003,0.48623,0.49241,0.49853,0.50472,0.51079,0.51699,0.52291,0.52846,0.53322,0.537,0.53952,0.54086,0.54123,0.54107,0.54083,0.54084,0.54141,0.54262,0.5445,0.54679,0.54943,0.55188,0.554,0.55546,0.55641,0.55683,0.55686,0.55661,0.55623,0.55568,0.555,0.55421,0.55334,0.55235,0.55148,0.55066,0.54996,0.54952,0.5491,0.54876,0.54829,0.54764,0.54668,0.54534,0.54394,0.54263,0.54147,0.54067,0.54014,0.53981,0.53969,0.53972,0.53975,0.5397,0.53963,0.53951,0.53936,0.53921,0.53902,0.539,0.5391,0.53936,0.53984,0.54057,0.54154,0.54282,0.5444,0.54635,0.54863,0.55125,0.55408,0.55715,0.56036,0.56377,0.56721,0.57082,0.57432,0.57808,0.58174,0.58558,0.5893,0.59318,0.59699,0.60095,0.60479,0.60879,0.61291,0.61706,0.62127,0.62542,0.6296,0.6336,0.63753,0.64153,0.64544,0.64908,0.6528,0.65632,0.66003,0.66361,0.66715,0.67031,0.67357,0.67662,0.67949,0.68204,0.68448,0.68647,0.68826,0.68971,0.6909,0.69188,0.69266,0.69302,0.69304,0.69284,0.69238,0.69187
-0.013373,-0.013439,-0.013476,-0.013456,-0.013413,-0.013314,-0.013167,-0.013003,-0.012724,-0.012368,-0.011893,-0.0113,-0.010459,-0.0094102,-0.0081027,-0.00653,-0.0046269,-0.0024663,-3.65e-05,0.0025884,0.0054867,0.0085321,0.011683,0.014996,0.018409,0.021837,0.025287,0.028705,0.032111,0.035395,0.038526,0.041568,0.044432,0.047072,0.049607,0.052036,0.054416,0.05675,0.059046,0.06137,0.063695,0.065938,0.068157,0.070292,0.072278,0.074056,0.075616,0.076957,0.078041,0.078833,0.079395,0.079683,0.079708,0.079459,0.078939,0.078127,0.077044,0.075753,0.074205,0.072503,0.070732,0.068896,0.067072,0.065264,0.063531,0.061909,0.06036,0.058919,0.057629,0.05644,0.055408,0.054483,0.053668,0.052972,0.052365,0.051832,0.051376,0.050969,0.050638,0.050323,0.050037,0.049764,0.049493,0.049231,0.048957,0.048667,0.048347,0.048001,0.04763,0.047232,0.04679,0.046337,0.045888,0.045436,0.045024,0.044639,0.044308,0.044043,0.043846,0.043721,0.04367,0.043716,0.043864,0.04412,0.044487,0.044966,0.0456,0.046354,0.047248,0.0483,0.049472,0.050833,0.05237,0.054028,0.055918,0.057937,0.060117,0.062473,0.0649,0.067528,0.070236,0.072989,0.075892,0.078785,0.08175,0.084715,0.087614,0.09059,0.09348,0.096204,0.098902,0.10142,0.10389,0.10623,0.10845,0.1107,0.11286,0.115,0.11721,0.11947,0.12198,0.12473,0.12776,0.13126,0.13514,0.13946,0.14424,0.14933,0.15512,0.1613,0.16789,0.17509,0.18265,0.19075,0.19915,0.20759,0.2164,0.22524,0.23404,0.24277,0.25114,0.25945,0.26731,0.27459,0.28156,0.28782,0.29363,0.29875,0.30321,0.30717,0.31054,0.31339,0.31583,0.31786,0.31964,0.32112,0.32237,0.32345,0.32433,0.32509,0.3257,0.32618,0.32651,0.32671,0.32676,0.32665,0.3264,0.326,0.32548,0.32483,0.3241,0.3233,0.3224,0.32143,0.32044,0.31936,0.31824,0.31704,0.31579,0.31456,0.31327,0.31195,0.31061,0.30932,0.30806,0.30678,0.30551,0.30431,0.30311,0.30199,0.3009,0.29984,0.2989,0.298,0.29714,0.29639,0.29567,0.29506,0.2945,0.29398,0.29351,0.29309,0.2927,0.29233,0.29198,0.29164,0.29135,0.29106,0.29079,0.29054,0.29026,0.29,0.28969,0.28935,0.28896,0.28851,0.28798,0.28735,0.28664,0.28584,0.28494,0.28393,0.2828,0.28158,0.28024,0.2788,0.27723,0.27555,0.27379,0.27195,0.27007,0.2681,0.26609,0.26409,0.26205,0.26004,0.25801,0.25597,0.25399,0.25201,0.25008,0.24816,0.24626,0.24443,0.2426,0.24084,0.23909,0.23738,0.23576,0.23415,0.23261,0.23111,0.22967,0.22834,0.22704,0.22586,0.22476,0.22378,0.22293,0.22221,0.2216,0.22112,0.22073,0.22051,0.22044,0.22058,0.22101,0.22172,0.22278,0.2242,0.22596,0.22818,0.23072,0.23354,0.23658,0.23963,0.24268,0.24552,0.24809,0.25033,0.25221,0.25372,0.25485,0.25565,0.2562,0.25659,0.25693,0.25726,0.25762,0.25802,0.25844,0.25888,0.2593,0.25967,0.25998,0.26023,0.26046,0.26072,0.26108,0.26158,0.2622,0.26296,0.2638,0.26463,0.26542,0.26609,0.26666,0.2671,0.26748,0.26778,0.26802,0.26822,0.26838,0.26852,0.26865,0.26877,0.26886,0.26886,0.26872,0.2684,0.26785,0.2671,0.26615,0.26503,0.26379,0.26241,0.26096,0.25947,0.25795,0.25644,0.2549,0.25347,0.25208,0.25079,0.24959,0.24844,0.24743,0.24644,0.24552,0.24458,0.24361,0.24261,0.24153,0.24039,0.23917,0.2379,0.23659,0.2352,0.23381,0.23236,0.23096,0.22962,0.22837,0.22732,0.22644,0.22579,0.2254,0.22531,0.2255,0.22599,0.22678,0.22792,0.22939,0.23128,0.2336,0.23635,0.23972,0.24355,0.24803,0.25317,0.25908,0.26588,0.27362,0.28254,0.29235,0.30328,0.31513,0.32767,0.3411,0.35486,0.36906,0.38318,0.39697,0.4103,0.4229,0.43488,0.44588,0.45614,0.46545,0.47382,0.48132,0.48789,0.49346,0.49796,0.5014,0.50367,0.50487,0.505,0.50414,0.50239,0.49991,0.49689,0.49341,0.48967,0.4857,0.48163,0.47746,0.47328,0.46913,0.46504,0.461,0.45699,0.45303,0.44909,0.44521,0.44136,0.43754,0.43375,0.42998,0.42621,0.42249,0.4188,0.41517,0.41166,0.40829,0.40506,0.40198,0.39913,0.39651,0.39416,0.39209,0.39039,0.38902,0.38801,0.38734,0.38703,0.38714,0.38764,0.3885,0.38978,0.39141,0.39343,0.3958,0.39853,0.40167,0.40501,0.40849,0.41222,0.41606,0.42003,0.42413,0.42826,0.43245,0.43657,0.4407,0.44466,0.44855,0.45232,0.45587,0.45929,0.46248,0.46561,0.46852,0.47133,0.47395,0.47644,0.4788,0.48106,0.48321,0.48519,0.48711,0.48886,0.49047,0.49194,0.49329,0.4945,0.49555,0.49651,0.4973,0.49796,0.49848,0.4988,0.499,0.49903,0.49895,0.49872,0.49833,0.49786,0.49722,0.49646,0.49551,0.49444,0.49318,0.49184,0.49028,0.48864,0.48686,0.48502,0.48314,0.48122,0.47931,0.47726,0.47524,0.47302,0.47086,0.46857,0.4663,0.46399,0.46169,0.45942,0.45717,0.45497,0.45274,0.4506,0.44834,0.44623,0.44398,0.44178,0.43949,0.43719,0.43488,0.43252,0.43021,0.42786,0.42556,0.42324,0.42107,0.41886,0.41679,0.41463,0.41259,0.41061,0.40871,0.4069,0.40513,0.40343,0.40188,0.40044,0.3991,0.39792,0.3969,0.39606,0.39543,0.39509,0.39511,0.39546,0.39621,0.39738,0.39903,0.40117,0.40386,0.40706,0.41082,0.4151,0.41979,0.42499,0.43049,0.43632,0.44221,0.44838,0.45441,0.46057,0.46647,0.47239,0.47819,0.48409,0.48995,0.49584,0.50158,0.50694,0.51148,0.51502,0.51735,0.51853,0.51885,0.51857,0.5182,0.51804,0.51843,0.51947,0.52119,0.52327,0.52566,0.52793,0.53001,0.53154,0.53256,0.53309,0.53326,0.53312,0.53274,0.53223,0.53155,0.53082,0.52994,0.52898,0.528,0.52713,0.52639,0.52577,0.52519,0.52472,0.52409,0.52336,0.52236,0.52124,0.51998,0.51878,0.51773,0.51689,0.51632,0.51603,0.5159,0.5158,0.51576,0.51566,0.51552,0.51532,0.51511,0.51491,0.51472,0.51464,0.5147,0.51493,0.5154,0.51603,0.51692,0.51811,0.51965,0.5216,0.5237,0.52617,0.52888,0.53183,0.53504,0.53834,0.54171,0.54529,0.54877,0.55237,0.55592,0.55944,0.56316,0.56685,0.5706,0.57441,0.57821,0.58218,0.58609,0.59019,0.59425,0.59829,0.60238,0.60644,0.61032,0.61408,0.61779,0.62126,0.62485,0.62835,0.63189,0.63519,0.63854,0.64178,0.64503,0.64799,0.6508,0.65334,0.65556,0.65763,0.65926,0.66072,0.66183,0.66283,0.66344,0.66372,0.66399,0.66375,0.6635,0.66298
-0.016487,-0.016543,-0.016576,-0.016573,-0.016519,-0.016414,-0.016278,-0.016096,-0.01583,-0.015473,-0.014988,-0.014383,-0.013561,-0.012538,-0.011254,-0.0097227,-0.0078621,-0.0057489,-0.0033787,-0.0008145,0.0020157,0.0049807,0.0080546,0.011293,0.01463,0.017989,0.021371,0.024722,0.028053,0.031281,0.034352,0.037338,0.04014,0.042715,0.045174,0.047523,0.049821,0.052082,0.054304,0.056567,0.058843,0.061041,0.063225,0.065323,0.067278,0.069028,0.070568,0.071889,0.072965,0.073756,0.074321,0.074623,0.074665,0.074444,0.07395,0.073173,0.07212,0.070848,0.069327,0.067643,0.06587,0.064034,0.062218,0.060418,0.05869,0.057072,0.055528,0.054101,0.052826,0.051644,0.050614,0.049695,0.048887,0.048198,0.047592,0.047062,0.046611,0.046198,0.045858,0.04554,0.045253,0.04498,0.04472,0.044469,0.044193,0.043903,0.043584,0.043242,0.042882,0.042491,0.042065,0.041625,0.041192,0.040746,0.040344,0.039968,0.039647,0.039385,0.039191,0.039071,0.039025,0.039065,0.039204,0.03944,0.039788,0.040252,0.040858,0.041583,0.042445,0.043472,0.044603,0.04593,0.047416,0.049024,0.050853,0.052808,0.054925,0.057206,0.059568,0.062125,0.064755,0.067416,0.070231,0.073051,0.075926,0.078827,0.081641,0.084542,0.087369,0.090025,0.092666,0.095134,0.097549,0.099848,0.10203,0.10423,0.10636,0.10846,0.11063,0.11284,0.11532,0.11802,0.121,0.12444,0.12824,0.13247,0.13717,0.14214,0.14782,0.15386,0.16034,0.16739,0.17484,0.18285,0.19115,0.19952,0.2083,0.21699,0.22574,0.23441,0.24275,0.25104,0.2589,0.26615,0.2731,0.27939,0.2852,0.29032,0.29478,0.29876,0.30215,0.30501,0.30748,0.30952,0.3113,0.31281,0.31406,0.31515,0.31604,0.31681,0.31742,0.3179,0.31825,0.31846,0.31851,0.31841,0.31817,0.31778,0.31728,0.31664,0.31592,0.31513,0.31426,0.31332,0.31234,0.31127,0.31015,0.30898,0.30774,0.3065,0.30521,0.30389,0.30258,0.30129,0.30002,0.29872,0.29745,0.29623,0.29503,0.29388,0.29277,0.29172,0.29075,0.28982,0.28897,0.28819,0.28749,0.28688,0.28629,0.28575,0.28528,0.28486,0.28446,0.28409,0.28374,0.28342,0.28313,0.28284,0.28255,0.28228,0.28202,0.28173,0.28144,0.28109,0.28069,0.28024,0.27971,0.27908,0.27838,0.27757,0.27668,0.27567,0.27453,0.27331,0.27196,0.27051,0.26893,0.26725,0.2655,0.26364,0.26175,0.25978,0.25778,0.25579,0.25377,0.25176,0.24972,0.24769,0.24573,0.24376,0.24184,0.23991,0.23802,0.23621,0.2344,0.23266,0.23094,0.22926,0.22766,0.22609,0.22459,0.22311,0.22169,0.22038,0.21911,0.21796,0.21691,0.21596,0.21516,0.21446,0.21387,0.21339,0.21303,0.21283,0.2128,0.21296,0.21341,0.21415,0.21523,0.21668,0.21847,0.22072,0.22329,0.22612,0.22919,0.23227,0.23536,0.23824,0.24088,0.24318,0.24512,0.24672,0.24794,0.24882,0.24945,0.2499,0.25029,0.25068,0.25106,0.2515,0.25193,0.25239,0.25279,0.25313,0.2534,0.25358,0.25372,0.25391,0.25418,0.25461,0.25518,0.2559,0.25669,0.25752,0.2583,0.25899,0.25957,0.26003,0.26043,0.26074,0.26098,0.26116,0.26131,0.26139,0.26146,0.26154,0.26158,0.26153,0.26136,0.26098,0.26042,0.25965,0.25868,0.25755,0.25633,0.25494,0.25351,0.25202,0.2505,0.24901,0.24749,0.24607,0.24468,0.2434,0.24222,0.24108,0.24005,0.23906,0.23814,0.23721,0.23624,0.23525,0.23416,0.23302,0.23181,0.23054,0.22925,0.22786,0.22646,0.22503,0.22364,0.22232,0.22109,0.22005,0.21919,0.21855,0.21816,0.21807,0.21826,0.21874,0.21952,0.22064,0.22207,0.22393,0.22622,0.22895,0.23229,0.23609,0.24052,0.24565,0.25153,0.2583,0.26601,0.27491,0.28472,0.29565,0.3075,0.32009,0.33358,0.34742,0.36174,0.37601,0.38989,0.40337,0.4161,0.42819,0.43931,0.44967,0.45907,0.46749,0.47507,0.48169,0.48733,0.49189,0.49537,0.4977,0.49889,0.49902,0.49816,0.49637,0.4939,0.49084,0.48733,0.48355,0.47952,0.47541,0.47119,0.46697,0.46275,0.45858,0.45448,0.45043,0.44641,0.44244,0.43853,0.43464,0.4308,0.42698,0.42319,0.4194,0.41565,0.41193,0.40831,0.40477,0.40138,0.39811,0.39504,0.39216,0.38956,0.3872,0.38515,0.38344,0.38207,0.38105,0.3804,0.3801,0.38022,0.38067,0.38155,0.38278,0.38446,0.38652,0.38894,0.39171,0.39487,0.39823,0.40175,0.40555,0.40946,0.4135,0.41761,0.42182,0.42607,0.43023,0.43439,0.43845,0.44239,0.44616,0.44974,0.4532,0.45647,0.45958,0.46249,0.46528,0.4679,0.47042,0.47281,0.47507,0.47721,0.47923,0.48116,0.4829,0.48454,0.48599,0.48731,0.48845,0.4895,0.49048,0.49128,0.49195,0.49247,0.49284,0.49302,0.49308,0.493,0.4928,0.4924,0.49193,0.49127,0.4905,0.48953,0.48846,0.48721,0.48588,0.48433,0.48273,0.48094,0.47908,0.47719,0.47527,0.47336,0.47134,0.46929,0.46711,0.46491,0.4626,0.46032,0.45802,0.45567,0.4534,0.45109,0.44893,0.44667,0.44455,0.4423,0.44018,0.43791,0.43571,0.43341,0.43111,0.42874,0.42636,0.42399,0.42159,0.41929,0.41694,0.41469,0.41243,0.4103,0.40815,0.40615,0.40415,0.40222,0.40037,0.39858,0.39692,0.39538,0.39391,0.39256,0.39139,0.39038,0.38958,0.38894,0.38864,0.38866,0.38907,0.38986,0.39107,0.39275,0.39498,0.39772,0.40097,0.40473,0.4091,0.41384,0.41907,0.42462,0.43049,0.4365,0.44271,0.44877,0.45497,0.46097,0.46701,0.47288,0.47886,0.48475,0.49076,0.49651,0.50192,0.50649,0.51009,0.51246,0.51373,0.51402,0.51383,0.51346,0.51336,0.51379,0.51488,0.51661,0.5188,0.52123,0.52358,0.52558,0.52699,0.52786,0.52829,0.52836,0.52816,0.52782,0.52726,0.5266,0.5258,0.5249,0.52394,0.52302,0.52217,0.5214,0.52082,0.52033,0.51988,0.51925,0.51848,0.51751,0.51628,0.51496,0.51376,0.51265,0.51175,0.51121,0.51093,0.51077,0.51071,0.51072,0.51065,0.51054,0.51038,0.51015,0.50989,0.50967,0.50955,0.5096,0.50983,0.51024,0.51096,0.51185,0.51312,0.51459,0.51643,0.51857,0.52111,0.52388,0.52687,0.52997,0.53333,0.53681,0.54029,0.54377,0.54739,0.55109,0.55476,0.55836,0.5621,0.56581,0.56965,0.57358,0.5776,0.58161,0.58571,0.58983,0.594,0.5981,0.60223,0.60626,0.6101,0.6139,0.61737,0.62108,0.62456,0.62823,0.63158,0.63507,0.63837,0.64163,0.64458,0.64743,0.64994,0.65223,0.65425,0.65591,0.65742,0.6585,0.65937,0.65999,0.66041,0.66063,0.66058,0.66019,0.6597
-0.0084945,-0.008567,-0.0085971,-0.0085664,-0.0085151,-0.0083876,-0.0082185,-0.0079969,-0.0076663,-0.0072372,-0.0066521,-0.0059328,-0.0049312,-0.0036872,-0.0021366,-0.0002756,0.0019756,0.0045378,0.0074159,0.010523,0.01395,0.017546,0.02127,0.025193,0.029217,0.033266,0.037341,0.041369,0.045365,0.049217,0.052892,0.056445,0.059767,0.062808,0.065716,0.068481,0.071189,0.07384,0.076462,0.079133,0.081822,0.084423,0.087001,0.089483,0.091794,0.09387,0.095694,0.097254,0.09853,0.099472,0.10015,0.10051,0.10057,0.10032,0.099739,0.098815,0.097566,0.096038,0.094206,0.092172,0.090041,0.087831,0.085626,0.083444,0.081349,0.0794,0.077532,0.075807,0.074271,0.072858,0.07161,0.070492,0.069519,0.068673,0.067927,0.067278,0.066727,0.066225,0.065802,0.065408,0.065052,0.064718,0.064381,0.064054,0.063723,0.063375,0.062988,0.062576,0.062136,0.061666,0.061148,0.060624,0.060108,0.059587,0.059105,0.058663,0.058281,0.057973,0.057745,0.057603,0.057559,0.057619,0.057802,0.0581,0.058535,0.059101,0.05984,0.060721,0.061761,0.062992,0.064357,0.065947,0.067734,0.069661,0.071855,0.0742,0.076733,0.079456,0.082269,0.08531,0.088436,0.091607,0.094946,0.098281,0.10169,0.1051,0.10842,0.11184,0.11515,0.11829,0.1214,0.1243,0.12714,0.12986,0.13242,0.13502,0.13755,0.14004,0.14263,0.14529,0.14824,0.15146,0.15503,0.15913,0.16365,0.16866,0.17418,0.18002,0.18668,0.19373,0.20125,0.20942,0.21792,0.22706,0.23654,0.24602,0.25595,0.26577,0.27551,0.28513,0.29431,0.30338,0.31195,0.31985,0.32736,0.33411,0.34035,0.34586,0.35063,0.35488,0.3585,0.36155,0.36417,0.36634,0.36821,0.3698,0.37111,0.37226,0.37319,0.37398,0.37463,0.37511,0.37544,0.37563,0.37566,0.37552,0.37521,0.37474,0.37415,0.37342,0.37258,0.37166,0.37069,0.36963,0.36851,0.36735,0.36613,0.36479,0.36348,0.36213,0.36069,0.35925,0.35779,0.35636,0.35495,0.35352,0.35212,0.35079,0.34948,0.34822,0.34701,0.34585,0.34484,0.34384,0.34291,0.34207,0.34131,0.34062,0.33998,0.33938,0.33887,0.3384,0.33795,0.33756,0.33716,0.3368,0.33647,0.33615,0.33584,0.33554,0.33523,0.33491,0.33456,0.33416,0.33373,0.33322,0.33263,0.33194,0.33115,0.33028,0.32933,0.32822,0.32699,0.32567,0.32421,0.32266,0.32096,0.31912,0.31722,0.31521,0.31316,0.31102,0.30884,0.30667,0.30445,0.30226,0.30004,0.29782,0.29568,0.29353,0.29142,0.28933,0.28726,0.28526,0.28327,0.28135,0.27944,0.27757,0.27579,0.27404,0.27237,0.27074,0.26917,0.26772,0.26635,0.26509,0.26391,0.26287,0.262,0.26127,0.26066,0.26018,0.2598,0.25961,0.25958,0.25977,0.26029,0.26113,0.26238,0.26403,0.26605,0.2686,0.27151,0.27475,0.27825,0.28177,0.28532,0.28866,0.29173,0.29448,0.29684,0.29881,0.30034,0.30148,0.3023,0.30292,0.30344,0.30393,0.3044,0.3049,0.3054,0.3059,0.30632,0.30668,0.3069,0.30701,0.30705,0.30711,0.30729,0.30763,0.30818,0.30891,0.30976,0.31069,0.31161,0.31241,0.31313,0.31372,0.31421,0.3146,0.3149,0.31511,0.31526,0.31531,0.31532,0.31534,0.31534,0.31522,0.31499,0.31455,0.3139,0.31305,0.31198,0.31074,0.30938,0.30787,0.30628,0.30464,0.30297,0.30133,0.29965,0.29807,0.29652,0.29509,0.29377,0.29252,0.29138,0.29028,0.28924,0.2882,0.2871,0.28598,0.28476,0.28349,0.28214,0.28074,0.27931,0.27777,0.27623,0.27464,0.2731,0.27162,0.27027,0.26912,0.26814,0.26746,0.26704,0.26695,0.26717,0.26772,0.26863,0.26992,0.27157,0.2737,0.27631,0.27938,0.28318,0.28747,0.29249,0.29825,0.30485,0.31243,0.321,0.3309,0.34174,0.35374,0.36669,0.38035,0.39492,0.40979,0.42505,0.44009,0.45476,0.46888,0.48214,0.49465,0.50612,0.51676,0.52638,0.53501,0.54275,0.54943,0.55508,0.55968,0.56317,0.5655,0.56667,0.56678,0.56592,0.56416,0.56165,0.55856,0.55502,0.55119,0.54711,0.5429,0.53857,0.53424,0.52992,0.52567,0.52147,0.51731,0.51319,0.50911,0.50507,0.50105,0.49706,0.49308,0.48913,0.48519,0.48128,0.47742,0.47362,0.46989,0.46636,0.46294,0.45972,0.4567,0.45395,0.45143,0.44926,0.44742,0.44592,0.4448,0.44405,0.44371,0.44378,0.44421,0.44508,0.44637,0.44807,0.45014,0.4526,0.4554,0.45861,0.46202,0.46566,0.46954,0.47353,0.47768,0.4819,0.48619,0.49055,0.49482,0.49909,0.50317,0.50715,0.51095,0.51456,0.51802,0.52124,0.52438,0.52727,0.53009,0.5327,0.53522,0.53756,0.53976,0.54191,0.5439,0.54584,0.54755,0.54917,0.55063,0.55197,0.55318,0.55423,0.55519,0.5559,0.55654,0.55704,0.55739,0.55756,0.55764,0.55759,0.55735,0.55699,0.55652,0.55588,0.55513,0.55417,0.5531,0.55177,0.5504,0.54882,0.54716,0.54539,0.54352,0.5417,0.53981,0.53793,0.53589,0.53384,0.53158,0.52934,0.52698,0.52466,0.52233,0.51998,0.51767,0.51536,0.51317,0.51092,0.50879,0.50655,0.50442,0.50213,0.49989,0.49756,0.49524,0.49283,0.49039,0.48799,0.48554,0.48315,0.48068,0.4784,0.47605,0.47388,0.47169,0.46959,0.46751,0.46553,0.46362,0.46184,0.46011,0.45852,0.45702,0.45564,0.45444,0.45342,0.45259,0.45203,0.45172,0.45183,0.4523,0.45319,0.45449,0.45636,0.4587,0.4616,0.46507,0.46907,0.4737,0.47872,0.4843,0.49011,0.49626,0.50248,0.509,0.51533,0.52175,0.52792,0.53423,0.54037,0.54655,0.55266,0.55873,0.5645,0.57,0.57475,0.57847,0.58098,0.58246,0.58301,0.58309,0.58298,0.58322,0.58404,0.58549,0.58751,0.59,0.59265,0.5951,0.59718,0.59847,0.59916,0.59936,0.59915,0.59868,0.59813,0.59747,0.59673,0.59591,0.59498,0.59407,0.59328,0.5926,0.59211,0.59176,0.59159,0.59135,0.59099,0.59032,0.58934,0.58801,0.58663,0.58522,0.58402,0.58306,0.5824,0.58207,0.58176,0.58168,0.58167,0.58164,0.58162,0.58141,0.58124,0.58106,0.58085,0.58082,0.58085,0.58099,0.58142,0.58212,0.5831,0.58441,0.58591,0.5878,0.59006,0.59248,0.59508,0.59799,0.60109,0.60427,0.60757,0.61113,0.61455,0.61811,0.62166,0.62537,0.62887,0.63251,0.63617,0.63996,0.64389,0.64777,0.65174,0.65581,0.65978,0.66384,0.66792,0.67179,0.67563,0.67941,0.68312,0.68672,0.69045,0.69382,0.69735,0.70073,0.70403,0.70715,0.7104,0.71329,0.71617,0.71862,0.72093,0.72278,0.72459,0.72598,0.7271,0.72786,0.72842,0.72874,0.72874,0.72859,0.72819,0.72781
-0.0080392,-0.0081153,-0.0081474,-0.0081204,-0.0080771,-0.0079451,-0.0077832,-0.0075464,-0.0072199,-0.0067862,-0.0061978,-0.0054701,-0.0044595,-0.003202,-0.001638,0.0002465,0.0025136,0.0050872,0.0079828,0.011115,0.014571,0.018203,0.021957,0.025912,0.029985,0.034075,0.03818,0.042245,0.046289,0.050196,0.053902,0.057488,0.060845,0.063917,0.06685,0.069637,0.072372,0.075049,0.077684,0.080373,0.083074,0.085692,0.08829,0.090785,0.093114,0.095197,0.097036,0.098614,0.099899,0.10085,0.10154,0.1019,0.10196,0.10171,0.10112,0.1002,0.098934,0.097409,0.095566,0.093529,0.09139,0.089172,0.086966,0.084771,0.082668,0.080706,0.078832,0.077088,0.075535,0.0741,0.072839,0.071712,0.070724,0.06987,0.069112,0.06844,0.067876,0.067374,0.066943,0.066537,0.066172,0.065825,0.065489,0.06516,0.064812,0.06445,0.064055,0.063633,0.063183,0.062706,0.062175,0.061642,0.061107,0.060582,0.060091,0.059644,0.05926,0.058953,0.058723,0.05858,0.058538,0.058597,0.058787,0.059093,0.059531,0.060102,0.060841,0.061736,0.062794,0.064043,0.065422,0.067039,0.068857,0.070816,0.073046,0.075429,0.078006,0.080767,0.08363,0.086722,0.08991,0.09314,0.096546,0.099932,0.10338,0.10686,0.11024,0.11372,0.1171,0.12029,0.12346,0.12642,0.12932,0.13208,0.13469,0.13736,0.13993,0.14247,0.14511,0.14782,0.15082,0.15414,0.15779,0.16199,0.16662,0.17176,0.17743,0.18342,0.19027,0.19749,0.20523,0.21359,0.22235,0.23176,0.24149,0.25124,0.26148,0.27157,0.28159,0.29149,0.30093,0.31027,0.31909,0.3272,0.33493,0.34186,0.34826,0.35388,0.35877,0.36311,0.36682,0.36994,0.37262,0.37486,0.3768,0.37844,0.37977,0.38093,0.38188,0.38268,0.38332,0.3838,0.38413,0.38431,0.38433,0.38415,0.38381,0.3833,0.38266,0.38188,0.381,0.38006,0.37901,0.37788,0.37672,0.37546,0.37414,0.37274,0.37135,0.36988,0.36833,0.36682,0.3653,0.36383,0.36238,0.36093,0.35949,0.35815,0.35682,0.35553,0.35428,0.35311,0.35203,0.351,0.35002,0.34915,0.34834,0.34762,0.34696,0.34636,0.34582,0.3453,0.34483,0.34442,0.34402,0.34363,0.34327,0.34293,0.34258,0.34227,0.34195,0.34161,0.34124,0.34082,0.34035,0.33981,0.3392,0.33848,0.33769,0.33678,0.33579,0.33465,0.33336,0.33199,0.33048,0.32886,0.3271,0.32523,0.32326,0.3212,0.31911,0.31691,0.31467,0.31244,0.31017,0.30792,0.30563,0.30335,0.30115,0.29894,0.29677,0.29462,0.2925,0.29046,0.28842,0.28645,0.28451,0.28261,0.28079,0.279,0.27728,0.27562,0.27403,0.27257,0.27117,0.26989,0.26873,0.26769,0.26684,0.26614,0.26555,0.26508,0.26473,0.26456,0.26455,0.26478,0.26532,0.2662,0.26747,0.26916,0.27121,0.2738,0.27676,0.28002,0.28354,0.28711,0.29068,0.29406,0.29714,0.29991,0.30229,0.30428,0.30582,0.30698,0.30782,0.30846,0.30903,0.30955,0.31009,0.31064,0.31118,0.3117,0.31214,0.3125,0.31273,0.31284,0.31289,0.31295,0.31314,0.31352,0.3141,0.31485,0.31573,0.31667,0.31757,0.31839,0.31911,0.31971,0.32024,0.32064,0.32095,0.3212,0.32135,0.32143,0.32148,0.32151,0.32151,0.32143,0.32121,0.3208,0.32015,0.31931,0.31825,0.31701,0.31564,0.31413,0.31253,0.31088,0.3092,0.30753,0.30583,0.30424,0.30269,0.30124,0.29991,0.29861,0.29746,0.29633,0.29527,0.29419,0.29309,0.29196,0.2907,0.28941,0.28804,0.2866,0.28513,0.28356,0.28198,0.28036,0.27878,0.27728,0.2759,0.27473,0.27377,0.27308,0.27268,0.27261,0.27285,0.27343,0.27437,0.2757,0.27741,0.27959,0.2823,0.28547,0.28939,0.29385,0.29904,0.30502,0.31184,0.31971,0.32859,0.33883,0.35004,0.36251,0.37595,0.39012,0.4052,0.42061,0.43646,0.45208,0.4673,0.48193,0.49566,0.50861,0.52045,0.53145,0.54134,0.55015,0.55804,0.56488,0.57065,0.5753,0.57886,0.58117,0.58232,0.5824,0.58143,0.57954,0.57692,0.57368,0.56998,0.56598,0.56174,0.55742,0.55292,0.54844,0.54399,0.53958,0.5352,0.53087,0.52658,0.52233,0.51815,0.51398,0.50983,0.50569,0.50158,0.49753,0.49346,0.48941,0.48549,0.48165,0.47796,0.47444,0.47108,0.46794,0.46509,0.46245,0.46014,0.45824,0.45671,0.45555,0.45476,0.45439,0.45448,0.45495,0.45582,0.45713,0.45889,0.46101,0.46353,0.46646,0.46981,0.47336,0.47711,0.48111,0.48523,0.48946,0.49384,0.49826,0.50271,0.50709,0.51146,0.51565,0.51974,0.52363,0.52737,0.53093,0.5343,0.53753,0.54054,0.54341,0.54609,0.54866,0.55108,0.55335,0.55556,0.55756,0.5595,0.56125,0.56291,0.56435,0.56571,0.56695,0.56803,0.56898,0.56975,0.57042,0.57097,0.57134,0.57155,0.57163,0.57157,0.57136,0.57098,0.57048,0.56982,0.569,0.56803,0.56692,0.56559,0.56419,0.56257,0.56089,0.55906,0.55717,0.55526,0.55324,0.55126,0.54914,0.54704,0.54476,0.54248,0.54008,0.53762,0.53522,0.5328,0.53041,0.52799,0.5257,0.52337,0.52118,0.51891,0.5167,0.51434,0.51207,0.5097,0.5073,0.50487,0.50236,0.4999,0.49739,0.49496,0.49253,0.49021,0.48788,0.4857,0.48347,0.48138,0.47927,0.47728,0.47536,0.47358,0.4718,0.47015,0.46865,0.46727,0.46609,0.46511,0.46426,0.46373,0.46347,0.46363,0.46414,0.46509,0.46651,0.46851,0.47099,0.4741,0.47776,0.48199,0.48673,0.49192,0.49758,0.50351,0.50981,0.51611,0.52274,0.52917,0.53572,0.54204,0.54832,0.5545,0.56074,0.5668,0.57294,0.57885,0.58439,0.58911,0.59283,0.5954,0.59686,0.59741,0.59741,0.59742,0.59767,0.59845,0.5998,0.6019,0.60441,0.60716,0.60969,0.61179,0.61324,0.61402,0.61426,0.61417,0.6138,0.61327,0.61268,0.612,0.61126,0.61043,0.60965,0.6088,0.60806,0.60747,0.60714,0.60688,0.60668,0.60635,0.60579,0.60485,0.60358,0.60212,0.60068,0.59943,0.59848,0.59786,0.59752,0.59728,0.59716,0.59712,0.59701,0.59689,0.59672,0.59653,0.59636,0.59622,0.59614,0.59618,0.59642,0.59692,0.59765,0.59863,0.59988,0.60141,0.6033,0.60542,0.60792,0.61065,0.61365,0.61689,0.62024,0.62366,0.62717,0.63075,0.63439,0.63803,0.64157,0.64532,0.64913,0.65299,0.6569,0.66082,0.66477,0.66896,0.67318,0.67742,0.68155,0.68571,0.68969,0.69372,0.69764,0.70153,0.70529,0.70916,0.71269,0.71636,0.71975,0.72325,0.7265,0.72989,0.73287,0.73578,0.73826,0.74067,0.74276,0.74442,0.74585,0.74704,0.748,0.74876,0.74907,0.7492,0.74895,0.7487,0.74813
-0.0060157,-0.006107,-0.0061484,-0.0061363,-0.0060768,-0.0059696,-0.0058095,-0.0055948,-0.0052781,-0.0048554,-0.0042876,-0.0035778,-0.0025917,-0.0013597,0.0001752,0.0020089,0.0042341,0.006767,0.0096072,0.012669,0.01605,0.019584,0.023239,0.027082,0.031028,0.03499,0.038979,0.042924,0.046846,0.050639,0.054252,0.057759,0.061042,0.064051,0.066938,0.069673,0.072359,0.074991,0.07758,0.080223,0.082879,0.085438,0.087977,0.090411,0.092671,0.094687,0.096459,0.097973,0.099205,0.10011,0.10077,0.10112,0.10117,0.10091,0.10032,0.099409,0.098168,0.096661,0.094858,0.092864,0.090762,0.088591,0.086438,0.084302,0.082254,0.08034,0.078505,0.076814,0.075299,0.073906,0.072672,0.071566,0.0706,0.069766,0.069037,0.068393,0.06785,0.067354,0.066937,0.066551,0.066203,0.065875,0.065546,0.065235,0.064909,0.064559,0.064189,0.063787,0.063345,0.062886,0.062371,0.06185,0.061337,0.060817,0.060337,0.059894,0.059514,0.059206,0.058976,0.058835,0.058778,0.058834,0.058999,0.059289,0.059701,0.060242,0.060955,0.061806,0.062817,0.064016,0.065349,0.066907,0.068645,0.070527,0.072662,0.074955,0.07743,0.080092,0.082848,0.085825,0.088886,0.091999,0.095277,0.098544,0.10187,0.10522,0.10846,0.11181,0.11506,0.11813,0.12117,0.12401,0.12679,0.12945,0.13196,0.13451,0.13697,0.13941,0.14192,0.1445,0.14737,0.1505,0.15396,0.15794,0.16233,0.1672,0.17255,0.17823,0.18469,0.19155,0.19889,0.20686,0.21518,0.2241,0.23338,0.24271,0.25251,0.26221,0.27183,0.28136,0.2905,0.29956,0.30812,0.316,0.32353,0.33031,0.33657,0.34208,0.34688,0.35118,0.35483,0.35792,0.36058,0.36279,0.36471,0.36633,0.36765,0.36882,0.36977,0.37058,0.37123,0.37172,0.37209,0.37229,0.37233,0.3722,0.3719,0.37146,0.37087,0.37018,0.36938,0.36851,0.36756,0.36655,0.36547,0.36432,0.36315,0.36187,0.36057,0.35923,0.35784,0.35642,0.35499,0.35357,0.35218,0.35075,0.34934,0.348,0.34667,0.34538,0.34416,0.343,0.34192,0.34088,0.33993,0.33906,0.33828,0.33758,0.33694,0.33632,0.33581,0.33533,0.33489,0.33449,0.33409,0.33373,0.33339,0.33308,0.33277,0.33246,0.33217,0.33184,0.33149,0.33109,0.33064,0.33012,0.32955,0.32885,0.32807,0.32718,0.32619,0.32508,0.32385,0.32252,0.32103,0.31948,0.31777,0.31593,0.31401,0.312,0.30995,0.30781,0.30563,0.30346,0.30124,0.29906,0.29685,0.29463,0.29249,0.29034,0.28823,0.28614,0.28409,0.28209,0.28012,0.27819,0.27629,0.27443,0.27267,0.27092,0.26925,0.26762,0.26607,0.26463,0.26325,0.26199,0.26084,0.25982,0.25896,0.25823,0.25764,0.25717,0.25682,0.25664,0.25663,0.25686,0.25741,0.25826,0.25951,0.26118,0.26321,0.26577,0.26869,0.27193,0.2754,0.2789,0.28242,0.28572,0.28874,0.29145,0.29377,0.29573,0.29724,0.29837,0.2992,0.29983,0.30039,0.3009,0.30141,0.30195,0.30248,0.303,0.30345,0.3038,0.30402,0.3041,0.30411,0.30414,0.30427,0.30459,0.30511,0.30582,0.30665,0.30755,0.30843,0.30921,0.3099,0.31047,0.31095,0.31132,0.3116,0.31178,0.31189,0.31191,0.31191,0.31189,0.31185,0.31173,0.31147,0.31101,0.31035,0.30949,0.30843,0.30722,0.30587,0.30434,0.30278,0.30117,0.29953,0.29789,0.29622,0.29465,0.29313,0.29171,0.29039,0.28913,0.288,0.28691,0.28587,0.28482,0.28373,0.28261,0.2814,0.28015,0.2788,0.2774,0.27597,0.27445,0.27292,0.27133,0.26979,0.26833,0.26697,0.26583,0.26485,0.26415,0.26372,0.26362,0.26383,0.26435,0.26522,0.26649,0.26809,0.27015,0.27269,0.2757,0.27943,0.28367,0.28863,0.29432,0.30082,0.3083,0.31679,0.32657,0.33734,0.34928,0.36218,0.37581,0.39038,0.40528,0.42062,0.43584,0.45064,0.46493,0.47838,0.49116,0.50288,0.51374,0.52353,0.53233,0.54022,0.54707,0.55291,0.5576,0.56121,0.56362,0.56485,0.56503,0.56419,0.56241,0.55986,0.55673,0.55313,0.54922,0.54511,0.54086,0.53647,0.53213,0.52779,0.52346,0.51921,0.51497,0.51082,0.50669,0.50261,0.49859,0.49455,0.49054,0.48654,0.48259,0.47862,0.4747,0.47085,0.46708,0.46349,0.46002,0.45675,0.45367,0.45084,0.4483,0.44608,0.44424,0.44275,0.44161,0.44087,0.44056,0.44066,0.44116,0.44206,0.44337,0.44511,0.44725,0.44978,0.45271,0.45604,0.45959,0.46335,0.46735,0.47147,0.47575,0.48009,0.4845,0.48897,0.49334,0.49769,0.50183,0.50592,0.50985,0.51354,0.51706,0.52036,0.52351,0.52641,0.52921,0.53177,0.53425,0.53663,0.53888,0.54103,0.54301,0.54491,0.54663,0.54825,0.54975,0.55112,0.55236,0.55341,0.55438,0.55516,0.55581,0.55637,0.55674,0.55692,0.557,0.55693,0.55674,0.55639,0.55586,0.55518,0.55443,0.55345,0.55237,0.55106,0.54966,0.5481,0.54643,0.54465,0.54285,0.54099,0.53908,0.53719,0.53517,0.53315,0.53092,0.5287,0.52635,0.52404,0.52172,0.51941,0.5171,0.51479,0.51258,0.51031,0.50818,0.50596,0.50382,0.50151,0.49922,0.49689,0.49452,0.49211,0.48965,0.48717,0.48464,0.48219,0.47971,0.47738,0.47502,0.47274,0.47048,0.46835,0.46624,0.46421,0.46221,0.46027,0.45848,0.45683,0.45526,0.45385,0.45259,0.45148,0.4506,0.44999,0.44967,0.44977,0.45018,0.45103,0.45238,0.45427,0.45671,0.45968,0.46324,0.46729,0.47194,0.4771,0.4828,0.48873,0.4951,0.50146,0.50815,0.51463,0.52122,0.5276,0.53399,0.54025,0.54657,0.55273,0.55892,0.56479,0.57034,0.57515,0.57891,0.58153,0.58304,0.58366,0.58382,0.58388,0.58421,0.58511,0.58671,0.58892,0.59157,0.59439,0.59693,0.599,0.6003,0.60091,0.60097,0.60062,0.6001,0.59941,0.59873,0.59796,0.5971,0.59612,0.59525,0.59445,0.59378,0.59334,0.59303,0.59292,0.59285,0.59266,0.59204,0.59102,0.58971,0.58815,0.58667,0.5853,0.58414,0.58345,0.58301,0.58279,0.58262,0.58255,0.58245,0.58237,0.58219,0.58194,0.58169,0.58152,0.5814,0.58147,0.58169,0.58212,0.58279,0.58376,0.58499,0.58654,0.58841,0.59051,0.59301,0.59575,0.59875,0.60188,0.60509,0.60847,0.61189,0.61545,0.61908,0.62275,0.62637,0.6301,0.63391,0.63755,0.64144,0.64532,0.64927,0.6533,0.65741,0.66154,0.66566,0.66972,0.67385,0.67781,0.68172,0.68549,0.68918,0.69302,0.69648,0.70003,0.70341,0.70678,0.71003,0.71331,0.7164,0.71933,0.72181,0.72434,0.72634,0.72793,0.72936,0.73047,0.73154,0.732,0.73241,0.73252,0.73226,0.73187,0.73132
-0.0061071,-0.0061888,-0.0062351,-0.006211,-0.00617,-0.0060476,-0.005887,-0.0056594,-0.0053422,-0.0049237,-0.0043456,-0.0036212,-0.0026235,-0.0013777,0.0001674,0.0020251,0.0042747,0.0068356,0.0097023,0.012796,0.016204,0.019786,0.023492,0.027389,0.031405,0.035439,0.039502,0.04353,0.047536,0.051423,0.055127,0.058701,0.062055,0.065129,0.068058,0.07084,0.07356,0.076222,0.07886,0.081548,0.084266,0.086901,0.089518,0.092018,0.094344,0.096433,0.098259,0.099819,0.10109,0.10203,0.10271,0.10309,0.10316,0.10291,0.10233,0.1014,0.10013,0.098567,0.096688,0.094605,0.092409,0.090137,0.08788,0.08563,0.083481,0.081486,0.079585,0.077819,0.076254,0.074806,0.073536,0.072393,0.071399,0.070535,0.069777,0.06911,0.068547,0.068041,0.067612,0.067214,0.06685,0.066513,0.066183,0.065864,0.065539,0.065199,0.064829,0.064422,0.063981,0.063516,0.063003,0.062482,0.061961,0.061447,0.060963,0.060524,0.060137,0.059827,0.059597,0.059459,0.059407,0.059464,0.059644,0.059945,0.060372,0.060933,0.061663,0.062531,0.063574,0.064801,0.066161,0.067745,0.069519,0.071442,0.073631,0.075964,0.078485,0.081207,0.084014,0.087062,0.090182,0.093367,0.09671,0.10005,0.10347,0.1069,0.11025,0.11369,0.11704,0.12019,0.12333,0.12627,0.12915,0.13189,0.13449,0.13713,0.13968,0.14221,0.14482,0.1475,0.15048,0.15374,0.15735,0.16147,0.16602,0.17103,0.17655,0.1824,0.18902,0.19604,0.20358,0.21175,0.22026,0.22942,0.23893,0.24849,0.2585,0.26839,0.27821,0.2879,0.29718,0.30634,0.31504,0.32302,0.33063,0.33748,0.34381,0.34939,0.35427,0.35857,0.36227,0.36538,0.36807,0.37032,0.37226,0.3739,0.37525,0.37644,0.37741,0.37824,0.37889,0.37941,0.37979,0.38,0.38003,0.3799,0.37962,0.37918,0.37863,0.37793,0.37713,0.37626,0.37531,0.37428,0.37319,0.37204,0.37082,0.36952,0.36818,0.3668,0.36538,0.36391,0.36248,0.36106,0.35968,0.35825,0.35685,0.35552,0.35421,0.35294,0.35171,0.35055,0.34951,0.34851,0.34755,0.34667,0.34588,0.34518,0.34452,0.34392,0.34336,0.34284,0.34239,0.34195,0.34153,0.34115,0.3408,0.34046,0.34014,0.33984,0.33952,0.33921,0.33885,0.33847,0.33803,0.33752,0.33692,0.33623,0.33546,0.33456,0.33359,0.33246,0.33121,0.32986,0.32837,0.3268,0.32506,0.32322,0.32131,0.31928,0.31722,0.31506,0.31286,0.31067,0.30845,0.30624,0.30401,0.30178,0.29961,0.29744,0.29531,0.29321,0.29113,0.28913,0.28712,0.28519,0.28328,0.28141,0.27963,0.27787,0.27619,0.27455,0.27299,0.27155,0.27016,0.26892,0.26777,0.26676,0.26592,0.26522,0.26466,0.26422,0.2639,0.26374,0.26377,0.26403,0.26462,0.26555,0.26689,0.26864,0.27078,0.27346,0.27651,0.2799,0.28353,0.28717,0.29084,0.29428,0.29745,0.30029,0.30274,0.30481,0.30642,0.30765,0.30855,0.30924,0.30984,0.31038,0.31093,0.31149,0.31204,0.31258,0.31304,0.31339,0.31358,0.31362,0.31356,0.31353,0.31358,0.31383,0.3143,0.31498,0.31579,0.31669,0.31759,0.31838,0.31909,0.31967,0.32018,0.32056,0.32083,0.32098,0.32106,0.32104,0.32098,0.32091,0.3208,0.32061,0.32031,0.31982,0.31911,0.31823,0.31712,0.31585,0.31447,0.31292,0.31133,0.30967,0.30798,0.30631,0.30461,0.30301,0.30145,0.30001,0.29866,0.29739,0.29623,0.29509,0.29402,0.29296,0.29185,0.2907,0.28945,0.28817,0.28679,0.28535,0.28388,0.28232,0.28075,0.27913,0.27755,0.27605,0.27467,0.27351,0.27253,0.27182,0.27137,0.27128,0.27149,0.27203,0.27292,0.27421,0.27585,0.27797,0.28057,0.28365,0.28746,0.29178,0.29684,0.30262,0.30926,0.3169,0.32555,0.33551,0.34642,0.35853,0.37157,0.38534,0.39998,0.41504,0.43046,0.44569,0.46054,0.47485,0.48828,0.50101,0.51267,0.52351,0.53328,0.54202,0.54988,0.5567,0.56252,0.56721,0.57082,0.57321,0.57449,0.57468,0.57388,0.57211,0.56964,0.56658,0.56306,0.55924,0.55518,0.55103,0.54672,0.54244,0.53814,0.53392,0.52974,0.52562,0.52153,0.51748,0.51345,0.50944,0.50548,0.50154,0.4976,0.49371,0.48977,0.48587,0.48204,0.47834,0.47479,0.47133,0.46804,0.46498,0.46215,0.45961,0.45737,0.45549,0.454,0.45287,0.45212,0.45176,0.45182,0.45228,0.45313,0.45442,0.45613,0.45823,0.46075,0.46364,0.46694,0.47047,0.47418,0.4781,0.48219,0.48643,0.49075,0.49512,0.49958,0.50393,0.50827,0.51242,0.51648,0.5203,0.52392,0.52739,0.53062,0.53371,0.53656,0.53929,0.54181,0.54422,0.54651,0.54867,0.55073,0.55268,0.55454,0.55627,0.55783,0.55924,0.56057,0.5617,0.56276,0.56366,0.56447,0.56514,0.56567,0.56606,0.56625,0.56633,0.56622,0.56605,0.5657,0.56523,0.5646,0.56389,0.56299,0.56192,0.56067,0.55927,0.55778,0.55614,0.55442,0.55266,0.55085,0.54899,0.54716,0.54523,0.54327,0.54115,0.53901,0.53672,0.53443,0.53215,0.52989,0.52765,0.52536,0.52322,0.52103,0.51901,0.51685,0.51473,0.51244,0.51022,0.5079,0.50557,0.5032,0.5007,0.49825,0.49573,0.49334,0.49088,0.48856,0.48616,0.48394,0.48166,0.47952,0.47741,0.47538,0.47341,0.47153,0.46974,0.46811,0.46656,0.46512,0.46389,0.46281,0.46196,0.46135,0.46104,0.46108,0.46149,0.46237,0.46374,0.46561,0.46801,0.47099,0.47452,0.47863,0.4833,0.48842,0.49414,0.50004,0.50635,0.5128,0.51947,0.52598,0.53259,0.53896,0.54534,0.55149,0.55776,0.56381,0.56995,0.57587,0.58142,0.58614,0.58996,0.59255,0.59411,0.59475,0.59489,0.59496,0.59537,0.59632,0.59787,0.6001,0.60273,0.60547,0.60799,0.61,0.61126,0.6118,0.61176,0.6113,0.61068,0.61011,0.60939,0.6086,0.60773,0.6068,0.6059,0.60513,0.60451,0.60403,0.60385,0.60367,0.60362,0.60349,0.60288,0.60189,0.60048,0.59897,0.5975,0.59612,0.59508,0.5943,0.59402,0.59376,0.59371,0.5936,0.5935,0.5934,0.59321,0.59307,0.59282,0.59264,0.59257,0.59267,0.59296,0.59334,0.59403,0.59492,0.59625,0.5978,0.59954,0.60157,0.60403,0.60674,0.60967,0.61274,0.61609,0.6194,0.62284,0.62623,0.62988,0.63324,0.63691,0.64055,0.6443,0.64788,0.65167,0.65527,0.65917,0.66312,0.66721,0.67129,0.67534,0.6795,0.6835,0.68736,0.69124,0.69503,0.69862,0.70228,0.70561,0.7091,0.71261,0.71589,0.7191,0.72234,0.72536,0.72816,0.73056,0.73272,0.7346,0.7362,0.73745,0.73865,0.7394,0.74001,0.74023,0.74031,0.7402,0.73971,0.73931
-0.011135,-0.011205,-0.011241,-0.011226,-0.01118,-0.011058,-0.010903,-0.010703,-0.010406,-0.010007,-0.0094891,-0.0088443,-0.0079321,-0.0068061,-0.0054081,-0.0037266,-0.0016953,0.0006133,0.0031986,0.0059876,0.0090647,0.012302,0.015652,0.019171,0.022796,0.026449,0.030131,0.03378,0.037415,0.040935,0.044288,0.047532,0.050576,0.053365,0.056032,0.058561,0.061054,0.063486,0.065895,0.06835,0.070827,0.073227,0.075611,0.077898,0.080023,0.081927,0.0836,0.085031,0.086198,0.087062,0.087694,0.088039,0.088099,0.087868,0.087333,0.086487,0.085328,0.083911,0.082199,0.080308,0.078312,0.076245,0.074196,0.072162,0.070218,0.068404,0.066677,0.065085,0.063653,0.062335,0.061182,0.060143,0.059233,0.058452,0.057769,0.057165,0.056652,0.056191,0.055804,0.05544,0.055111,0.054802,0.054502,0.054208,0.053902,0.053586,0.05324,0.052868,0.052464,0.052031,0.051551,0.051078,0.050592,0.050113,0.04966,0.04924,0.048885,0.048595,0.048372,0.048238,0.048177,0.048215,0.048363,0.048624,0.049003,0.049494,0.050151,0.050934,0.051865,0.052966,0.054185,0.055626,0.057229,0.058962,0.060938,0.063052,0.065338,0.067798,0.070338,0.0731,0.075935,0.078824,0.081871,0.084913,0.088024,0.091155,0.094196,0.097337,0.10038,0.10327,0.10613,0.10881,0.11144,0.11393,0.1163,0.11871,0.12104,0.12334,0.12572,0.12817,0.13087,0.13383,0.13709,0.14085,0.14497,0.14954,0.15457,0.1599,0.16595,0.17238,0.17927,0.18679,0.19468,0.20314,0.21182,0.22057,0.22982,0.23898,0.24806,0.25707,0.26566,0.2742,0.28228,0.28973,0.29684,0.30323,0.30915,0.31437,0.31892,0.32297,0.32644,0.32939,0.33192,0.33403,0.33587,0.33742,0.3387,0.3398,0.34073,0.3415,0.34214,0.34263,0.34298,0.34319,0.34324,0.34312,0.34287,0.34246,0.34193,0.34129,0.34056,0.33971,0.33881,0.33783,0.33682,0.33573,0.33459,0.33335,0.33211,0.33082,0.32949,0.32818,0.32683,0.32553,0.32424,0.32293,0.32166,0.32045,0.31928,0.31814,0.31706,0.31602,0.31506,0.31414,0.3133,0.31252,0.31182,0.31119,0.31059,0.31005,0.30957,0.30912,0.3087,0.3083,0.30793,0.3076,0.30727,0.30696,0.30667,0.30638,0.3061,0.30581,0.30549,0.30512,0.30471,0.30422,0.30366,0.30301,0.3023,0.30146,0.30055,0.29949,0.29832,0.29704,0.29567,0.29419,0.29258,0.29085,0.28905,0.28717,0.28523,0.28321,0.28115,0.2791,0.27701,0.27494,0.27287,0.27078,0.26874,0.26671,0.26473,0.26277,0.26083,0.25897,0.2571,0.25529,0.2535,0.25176,0.2501,0.24845,0.24688,0.24535,0.24389,0.24255,0.24127,0.2401,0.23903,0.23808,0.2373,0.23666,0.23612,0.2357,0.23538,0.23522,0.23522,0.23544,0.23597,0.23679,0.23798,0.23956,0.2415,0.24394,0.2467,0.24976,0.25308,0.25639,0.25977,0.26294,0.26586,0.26847,0.27071,0.27259,0.27405,0.27515,0.27596,0.27658,0.27711,0.27759,0.27804,0.27852,0.27902,0.27949,0.2799,0.28023,0.28041,0.28048,0.28046,0.28047,0.28057,0.28084,0.28132,0.28197,0.28275,0.28359,0.28443,0.28518,0.28583,0.28637,0.28682,0.28717,0.28742,0.28759,0.28768,0.28768,0.28766,0.28762,0.28755,0.28741,0.28713,0.28669,0.28605,0.28523,0.28421,0.28304,0.28177,0.28033,0.27885,0.27731,0.27575,0.2742,0.27262,0.27115,0.26971,0.26837,0.26714,0.26596,0.26488,0.26383,0.26287,0.26188,0.26086,0.25983,0.25868,0.2575,0.25625,0.25495,0.2536,0.25217,0.25074,0.24924,0.2478,0.24643,0.24516,0.24408,0.24319,0.24254,0.24213,0.24204,0.24223,0.24273,0.24355,0.24473,0.24626,0.24821,0.25059,0.25343,0.25694,0.26091,0.26556,0.27091,0.27705,0.28412,0.29212,0.30135,0.31148,0.32278,0.33497,0.34787,0.36168,0.37578,0.3903,0.40472,0.4188,0.43238,0.44512,0.45727,0.46845,0.47881,0.4882,0.49663,0.50419,0.51075,0.51634,0.52087,0.52432,0.52663,0.52782,0.52798,0.52713,0.52539,0.52296,0.51997,0.51655,0.51284,0.5089,0.50487,0.5007,0.49654,0.49241,0.48829,0.48424,0.48025,0.47625,0.47232,0.46846,0.4646,0.46076,0.45699,0.45319,0.44942,0.44567,0.44194,0.43831,0.43478,0.43139,0.42813,0.42504,0.42218,0.41954,0.41715,0.41506,0.41328,0.41186,0.41082,0.41013,0.40984,0.40991,0.41037,0.41125,0.41255,0.41418,0.41621,0.41861,0.42139,0.42455,0.4279,0.43141,0.4352,0.43908,0.44307,0.44718,0.45138,0.45562,0.45979,0.46395,0.46793,0.47183,0.47556,0.4791,0.48249,0.48565,0.48867,0.49146,0.49418,0.49668,0.4991,0.50141,0.50355,0.50561,0.50752,0.50941,0.5111,0.51273,0.51414,0.51545,0.51664,0.51768,0.51863,0.5194,0.52005,0.52055,0.52094,0.52115,0.52125,0.52121,0.52102,0.52066,0.52025,0.51965,0.51893,0.51805,0.51705,0.51584,0.51454,0.51305,0.51148,0.50978,0.50807,0.5063,0.50444,0.50266,0.50073,0.49874,0.49665,0.49449,0.49226,0.49005,0.48783,0.48562,0.4834,0.48121,0.47909,0.47692,0.47487,0.47275,0.47066,0.46845,0.46628,0.46401,0.46179,0.45948,0.4571,0.45478,0.45242,0.4501,0.44776,0.44552,0.4433,0.4412,0.43909,0.43708,0.43505,0.43312,0.43128,0.42957,0.42788,0.42627,0.42481,0.42346,0.42229,0.42125,0.42042,0.41982,0.41951,0.41958,0.42,0.42083,0.4221,0.4239,0.42615,0.42901,0.43236,0.43617,0.4406,0.44542,0.45076,0.45638,0.46243,0.46851,0.47482,0.48097,0.48725,0.49337,0.49945,0.50541,0.51146,0.51742,0.52341,0.52914,0.53448,0.53908,0.5427,0.54513,0.54649,0.54696,0.54695,0.54688,0.54707,0.54779,0.54918,0.55115,0.55349,0.55615,0.55851,0.56043,0.56179,0.56249,0.56271,0.56249,0.56209,0.56154,0.56094,0.56021,0.55942,0.55862,0.55775,0.55697,0.5563,0.55575,0.55545,0.5553,0.55506,0.55473,0.55415,0.55312,0.55184,0.55048,0.54906,0.54791,0.54704,0.54636,0.546,0.5458,0.54566,0.54567,0.54559,0.54544,0.54531,0.54507,0.54491,0.5447,0.5446,0.5447,0.54495,0.54542,0.54615,0.54704,0.54811,0.54951,0.55138,0.5535,0.55595,0.55854,0.56146,0.56446,0.56767,0.57093,0.57428,0.57764,0.58111,0.58457,0.58813,0.59158,0.59512,0.5988,0.60244,0.60625,0.61016,0.6141,0.61817,0.6222,0.62636,0.6304,0.63435,0.63818,0.64186,0.64565,0.64919,0.65283,0.65617,0.65968,0.66303,0.66617,0.66946,0.67266,0.67563,0.67838,0.68074,0.68305,0.68511,0.68683,0.68827,0.68943,0.69025,0.69074,0.69107,0.69095,0.69086,0.69056,0.69002
-0.013503,-0.01357,-0.013605,-0.013588,-0.013545,-0.013428,-0.013277,-0.013081,-0.01278,-0.012393,-0.011872,-0.011231,-0.010341,-0.0092317,-0.0078584,-0.0062051,-0.0041982,-0.0019229,0.0006262,0.003387,0.0064255,0.0096117,0.012915,0.016382,0.019951,0.023546,0.027167,0.030748,0.034307,0.037761,0.041047,0.044235,0.04721,0.049938,0.052549,0.055041,0.057477,0.05987,0.062229,0.06464,0.067071,0.069425,0.071766,0.074002,0.076087,0.077953,0.079594,0.081,0.082146,0.082997,0.083608,0.083938,0.083996,0.083772,0.083243,0.082409,0.081278,0.079903,0.078252,0.076427,0.074503,0.072508,0.070529,0.06856,0.066675,0.064921,0.063242,0.061691,0.060307,0.059029,0.057913,0.056911,0.056027,0.055268,0.05461,0.054027,0.053534,0.053099,0.052724,0.052375,0.052057,0.05176,0.051471,0.051184,0.050887,0.050579,0.050242,0.049876,0.049486,0.049069,0.048603,0.04813,0.047662,0.047193,0.046769,0.046367,0.046022,0.045745,0.045532,0.045401,0.045345,0.045392,0.045543,0.0458,0.046172,0.046659,0.047306,0.048079,0.049002,0.050093,0.051301,0.052713,0.054293,0.056007,0.057959,0.060043,0.062297,0.064731,0.067242,0.069956,0.072755,0.075601,0.078596,0.081584,0.084641,0.08772,0.090714,0.093795,0.096801,0.099632,0.10245,0.10508,0.10766,0.11011,0.11243,0.1148,0.11708,0.11934,0.12165,0.12404,0.12669,0.12959,0.1328,0.13649,0.14056,0.14508,0.15007,0.15536,0.16138,0.16778,0.17465,0.18214,0.19,0.19843,0.20717,0.21591,0.22517,0.23437,0.24351,0.25257,0.26126,0.26989,0.27804,0.28558,0.29277,0.29924,0.30524,0.31052,0.31514,0.31926,0.32277,0.32575,0.32833,0.33048,0.33234,0.3339,0.33518,0.33631,0.33723,0.33801,0.33865,0.33914,0.33947,0.33967,0.33972,0.3396,0.33934,0.33892,0.33839,0.33772,0.33694,0.33609,0.33519,0.33423,0.3332,0.33213,0.33097,0.32973,0.32849,0.32721,0.32586,0.32451,0.32315,0.32181,0.32048,0.31909,0.31774,0.31647,0.31519,0.31396,0.3128,0.31165,0.31063,0.30967,0.30879,0.30797,0.30723,0.30657,0.30598,0.30544,0.30495,0.3045,0.30409,0.30371,0.30334,0.303,0.30266,0.30236,0.30207,0.3018,0.30152,0.30122,0.3009,0.30054,0.30012,0.29964,0.2991,0.29843,0.29769,0.29683,0.29591,0.29485,0.29366,0.29239,0.29097,0.28947,0.28784,0.28609,0.28428,0.28236,0.28041,0.27836,0.27628,0.27421,0.27209,0.27,0.26788,0.26576,0.2637,0.26165,0.25964,0.25765,0.25569,0.2538,0.25191,0.25007,0.24827,0.2465,0.24482,0.24315,0.24156,0.24002,0.23852,0.23716,0.23583,0.23463,0.23353,0.23255,0.23171,0.23101,0.23044,0.22997,0.22962,0.22942,0.22939,0.22958,0.23006,0.23085,0.23199,0.23353,0.23541,0.23779,0.2405,0.2435,0.24673,0.25,0.25329,0.25637,0.25917,0.26165,0.26376,0.2655,0.26683,0.26781,0.26852,0.26904,0.2695,0.26992,0.27034,0.27079,0.27126,0.27172,0.27214,0.27248,0.27274,0.27287,0.27297,0.27311,0.27333,0.27372,0.27429,0.27502,0.27582,0.27669,0.27753,0.27825,0.27886,0.27937,0.27979,0.28011,0.28036,0.28055,0.28066,0.28073,0.28078,0.28081,0.28081,0.28072,0.28052,0.28013,0.27952,0.27871,0.2777,0.27652,0.27522,0.27378,0.27228,0.27073,0.26916,0.2676,0.26602,0.26452,0.26308,0.26174,0.26048,0.25929,0.2582,0.25714,0.25614,0.25513,0.25411,0.25307,0.25193,0.25074,0.24948,0.24815,0.24679,0.24535,0.2439,0.24239,0.24092,0.23953,0.23825,0.23718,0.23628,0.23561,0.23521,0.23512,0.23531,0.2358,0.23661,0.23779,0.23929,0.24125,0.24365,0.2465,0.25004,0.25406,0.25877,0.26414,0.27033,0.27743,0.28549,0.29479,0.30501,0.31641,0.32875,0.34182,0.35579,0.37016,0.38492,0.39956,0.41391,0.42775,0.44077,0.45316,0.46454,0.47512,0.48471,0.49334,0.50106,0.50777,0.51351,0.51813,0.52167,0.524,0.52521,0.52536,0.52449,0.52266,0.52014,0.51704,0.51347,0.5096,0.50549,0.50135,0.49703,0.49271,0.48844,0.48421,0.48003,0.47586,0.47178,0.46773,0.46372,0.45977,0.45583,0.45194,0.44804,0.44417,0.44031,0.43649,0.43274,0.42905,0.42558,0.4222,0.41902,0.41608,0.41334,0.4109,0.40877,0.40699,0.40554,0.40447,0.40376,0.40347,0.40354,0.40403,0.4049,0.40618,0.40787,0.40997,0.41242,0.41527,0.4185,0.42193,0.42557,0.4294,0.43335,0.43745,0.44165,0.4459,0.45022,0.45447,0.45872,0.4628,0.46679,0.4706,0.4742,0.47768,0.48093,0.48402,0.48692,0.48971,0.49229,0.49479,0.49715,0.49938,0.50153,0.5035,0.5054,0.50718,0.50882,0.51029,0.51168,0.51289,0.51396,0.51491,0.51575,0.51646,0.51704,0.5174,0.51764,0.51769,0.51762,0.51741,0.51704,0.51655,0.51592,0.51516,0.51427,0.51322,0.51195,0.51059,0.509,0.50734,0.50562,0.50377,0.50189,0.49994,0.49801,0.49597,0.49396,0.49174,0.48953,0.48722,0.48489,0.48257,0.48023,0.47791,0.47559,0.47336,0.47112,0.46902,0.4668,0.46466,0.46237,0.46014,0.45777,0.45544,0.45306,0.4506,0.44819,0.44576,0.44341,0.441,0.43867,0.43636,0.43421,0.43201,0.42995,0.42789,0.42588,0.42399,0.42215,0.4204,0.4188,0.41728,0.41589,0.41466,0.41355,0.41269,0.41207,0.41174,0.41178,0.41214,0.41295,0.4142,0.41596,0.41822,0.42101,0.42436,0.42827,0.43272,0.43762,0.44301,0.44867,0.45476,0.46099,0.46747,0.4737,0.4801,0.48625,0.49242,0.49849,0.50462,0.51067,0.51672,0.52256,0.52818,0.53285,0.53655,0.53897,0.54035,0.54074,0.54055,0.54028,0.54035,0.54095,0.54222,0.54409,0.54637,0.5489,0.55127,0.55331,0.55469,0.55545,0.5558,0.55566,0.55533,0.55484,0.55431,0.55366,0.55284,0.55193,0.55101,0.55011,0.54929,0.54867,0.54823,0.54786,0.54754,0.54705,0.54634,0.54534,0.54413,0.54268,0.5413,0.54005,0.53912,0.53852,0.53822,0.53811,0.53798,0.53788,0.53777,0.53765,0.53741,0.53713,0.53694,0.53677,0.53666,0.53673,0.53699,0.53739,0.5381,0.539,0.54026,0.5417,0.54353,0.54564,0.54817,0.55095,0.55395,0.55706,0.56032,0.56375,0.56724,0.57069,0.57429,0.57784,0.58156,0.58523,0.58907,0.59272,0.59661,0.60046,0.60453,0.6086,0.61267,0.61679,0.62103,0.62521,0.62924,0.6331,0.63692,0.64078,0.64438,0.64795,0.65133,0.65495,0.65826,0.66185,0.66515,0.66834,0.67134,0.67415,0.67666,0.67906,0.681,0.68264,0.68417,0.68545,0.68621,0.68674,0.68709,0.68722,0.68696,0.68655,0.68607
-0.0002518,-0.0003372,-0.0003769,-0.0003702,-0.000303,-0.0001814,2.39e-05,0.0002832,0.0006484,0.0011407,0.0017999,0.0026268,0.0037708,0.0051768,0.0069484,0.0090625,0.01162,0.014517,0.017769,0.021276,0.025144,0.029208,0.033416,0.037849,0.042412,0.046997,0.051609,0.056176,0.060707,0.065088,0.069246,0.07325,0.076977,0.080384,0.083626,0.0867,0.089702,0.092641,0.095541,0.098517,0.10152,0.10443,0.10732,0.1101,0.1127,0.11504,0.1171,0.11888,0.12033,0.12143,0.12223,0.12269,0.12281,0.12257,0.12195,0.12094,0.11954,0.11781,0.11573,0.11341,0.11095,0.10839,0.10584,0.10331,0.1009,0.098641,0.096494,0.094503,0.09273,0.091091,0.089661,0.088368,0.087237,0.086262,0.085401,0.084636,0.083983,0.08339,0.082889,0.082423,0.081995,0.081593,0.081202,0.080822,0.080427,0.080011,0.079563,0.079086,0.078576,0.078036,0.077441,0.076842,0.07624,0.075644,0.075102,0.074598,0.074166,0.073817,0.073562,0.073404,0.073354,0.073425,0.073632,0.073966,0.074457,0.075089,0.075919,0.076905,0.078079,0.07947,0.08101,0.082793,0.084799,0.086971,0.08944,0.092086,0.094934,0.098006,0.10117,0.10459,0.10811,0.11167,0.11542,0.11916,0.12298,0.1268,0.13051,0.13433,0.13804,0.14153,0.14502,0.14829,0.15149,0.15454,0.15742,0.16034,0.16317,0.16597,0.16885,0.17181,0.17511,0.17875,0.18276,0.18736,0.1924,0.19798,0.20411,0.21058,0.21787,0.22555,0.23382,0.24278,0.25217,0.26217,0.27248,0.28282,0.29361,0.30424,0.31476,0.32514,0.33499,0.34476,0.35395,0.3624,0.37045,0.37767,0.38434,0.3902,0.39527,0.39979,0.40361,0.40681,0.40957,0.41187,0.41384,0.4155,0.41688,0.41808,0.41907,0.41991,0.42059,0.42111,0.42146,0.42167,0.42171,0.42153,0.4212,0.42071,0.42007,0.41929,0.41839,0.41742,0.41638,0.41526,0.41407,0.41283,0.41154,0.41016,0.40874,0.40731,0.40581,0.40429,0.40274,0.40121,0.3997,0.39815,0.39665,0.39522,0.39381,0.39244,0.39113,0.38988,0.38875,0.38765,0.38664,0.3857,0.38488,0.38417,0.38346,0.38284,0.38229,0.38178,0.38132,0.3809,0.38049,0.38011,0.37977,0.37943,0.37911,0.3788,0.37848,0.37815,0.37777,0.37737,0.3769,0.37635,0.37572,0.37499,0.37418,0.37322,0.37219,0.37102,0.3697,0.36828,0.36673,0.36507,0.36324,0.3613,0.35927,0.35715,0.35498,0.3527,0.35038,0.34807,0.34572,0.34339,0.34104,0.33867,0.33638,0.33408,0.33184,0.32961,0.3274,0.32529,0.32317,0.32112,0.3191,0.31712,0.31523,0.31337,0.3116,0.30988,0.30823,0.30671,0.30526,0.30395,0.30275,0.30169,0.30081,0.30009,0.2995,0.29904,0.29873,0.29856,0.29858,0.29884,0.29945,0.30041,0.30177,0.30359,0.30579,0.30857,0.31174,0.31527,0.31908,0.3229,0.32678,0.33044,0.33383,0.33691,0.33959,0.34188,0.34369,0.34508,0.34614,0.34696,0.34769,0.34834,0.34899,0.34963,0.35025,0.35084,0.35133,0.35168,0.35182,0.35179,0.35164,0.35151,0.35149,0.3517,0.35217,0.35288,0.35375,0.35474,0.35574,0.35666,0.3575,0.35821,0.3588,0.35929,0.35963,0.35985,0.35996,0.35997,0.3599,0.35982,0.35971,0.35954,0.35924,0.35873,0.358,0.35707,0.35592,0.35461,0.35315,0.35154,0.34986,0.34812,0.34632,0.34458,0.34278,0.34109,0.33943,0.33791,0.33648,0.33511,0.33388,0.33266,0.33153,0.33038,0.32919,0.32798,0.32666,0.32527,0.32382,0.32229,0.32072,0.31908,0.31743,0.31573,0.31406,0.31246,0.31099,0.30977,0.30875,0.308,0.30754,0.30745,0.3077,0.3083,0.30925,0.31062,0.31234,0.31461,0.3174,0.32074,0.32484,0.32949,0.33488,0.34107,0.34812,0.35624,0.3654,0.37592,0.38746,0.4002,0.41394,0.42843,0.44384,0.45952,0.47563,0.49152,0.50694,0.52173,0.53558,0.54873,0.56073,0.57183,0.58183,0.59075,0.59878,0.60566,0.6115,0.6162,0.61982,0.62216,0.62338,0.62354,0.62268,0.62084,0.61828,0.6151,0.61145,0.60749,0.60329,0.599,0.59457,0.5901,0.58558,0.58121,0.57687,0.57255,0.56831,0.56405,0.55983,0.55567,0.55152,0.54739,0.54328,0.53915,0.53506,0.53105,0.5271,0.52325,0.51956,0.516,0.51264,0.50949,0.50658,0.50396,0.50169,0.49979,0.49824,0.49705,0.49626,0.49594,0.496,0.49645,0.49737,0.49872,0.5005,0.50269,0.50524,0.50825,0.51162,0.51524,0.51903,0.52308,0.52725,0.53159,0.53599,0.54047,0.54499,0.54945,0.55386,0.55808,0.56224,0.56621,0.56998,0.57356,0.57691,0.58014,0.58313,0.58599,0.58866,0.59123,0.59363,0.5959,0.59805,0.60005,0.60192,0.60365,0.60533,0.60674,0.60811,0.6093,0.61036,0.61129,0.61206,0.61272,0.61321,0.61356,0.61377,0.61387,0.61378,0.61354,0.61318,0.61267,0.61196,0.61116,0.61019,0.60907,0.60772,0.60629,0.60471,0.60306,0.60127,0.59932,0.59745,0.59548,0.59356,0.59147,0.58939,0.5871,0.58478,0.58232,0.57991,0.57747,0.57504,0.57262,0.57023,0.5679,0.56559,0.56338,0.56108,0.55884,0.55646,0.55407,0.55161,0.54918,0.54674,0.5442,0.54168,0.53912,0.5366,0.53405,0.53161,0.52917,0.52688,0.52455,0.52238,0.52019,0.51814,0.51615,0.51426,0.51245,0.5108,0.50926,0.50789,0.50671,0.50569,0.50491,0.50444,0.50418,0.50435,0.50495,0.50597,0.50749,0.50963,0.51228,0.51541,0.51923,0.52359,0.52854,0.5339,0.53976,0.54589,0.55243,0.55901,0.56585,0.57244,0.57916,0.58561,0.5922,0.59863,0.60506,0.61132,0.61753,0.62349,0.62904,0.63386,0.63776,0.64042,0.642,0.64285,0.6432,0.64347,0.64399,0.64525,0.64711,0.64958,0.65244,0.65538,0.658,0.66007,0.66131,0.6618,0.66165,0.66106,0.66029,0.65947,0.65864,0.6578,0.65695,0.65608,0.65528,0.65456,0.65396,0.6537,0.65368,0.65369,0.65381,0.65368,0.65315,0.65225,0.65075,0.6491,0.6475,0.64595,0.64478,0.64395,0.64353,0.64326,0.64318,0.64312,0.64298,0.64287,0.64275,0.6425,0.64227,0.64216,0.6421,0.64214,0.64232,0.64268,0.64342,0.64433,0.6455,0.64699,0.64883,0.65098,0.65338,0.65606,0.65889,0.66206,0.66534,0.66868,0.67206,0.67555,0.67914,0.68261,0.6861,0.68968,0.69329,0.6971,0.70091,0.7049,0.70879,0.71289,0.71703,0.72111,0.72527,0.72937,0.73339,0.73732,0.74111,0.74499,0.7486,0.75229,0.7559,0.75954,0.76291,0.76626,0.76957,0.77297,0.77597,0.77888,0.78148,0.78367,0.78564,0.78738,0.78877,0.79007,0.79079,0.7913,0.79156,0.79174,0.79153,0.79116,0.79057
-0.0031553,-0.0032551,-0.0032971,-0.0032958,-0.0032561,-0.0031353,-0.0029661,-0.0027332,-0.002395,-0.001951,-0.0013393,-0.0005669,0.000501,0.0018236,0.0034896,0.0054901,0.0079221,0.01069,0.013804,0.017175,0.020914,0.024837,0.028909,0.033199,0.037598,0.04203,0.046488,0.050898,0.055275,0.059504,0.063517,0.067398,0.07103,0.074348,0.077526,0.08054,0.083487,0.086378,0.089238,0.09216,0.095103,0.097959,0.10081,0.10354,0.1061,0.1084,0.11044,0.11219,0.11363,0.11471,0.1155,0.11596,0.11608,0.11584,0.11524,0.11426,0.1129,0.11123,0.10921,0.10696,0.10459,0.10213,0.099672,0.097231,0.094901,0.092727,0.090651,0.088744,0.087036,0.085469,0.084096,0.082868,0.081793,0.080865,0.08005,0.07934,0.078738,0.078196,0.077728,0.077294,0.076898,0.076522,0.076155,0.075794,0.075418,0.075023,0.074603,0.074149,0.073657,0.073135,0.072564,0.071988,0.071411,0.070846,0.070326,0.069844,0.069425,0.069087,0.068842,0.068688,0.06864,0.068706,0.068901,0.069224,0.069693,0.070301,0.0711,0.072049,0.073178,0.074516,0.076002,0.077742,0.079683,0.081791,0.084171,0.086728,0.089472,0.092434,0.095492,0.098791,0.10219,0.10562,0.10923,0.11283,0.11652,0.12022,0.1238,0.12749,0.13108,0.13446,0.13781,0.14096,0.14404,0.14698,0.14978,0.15264,0.15539,0.15811,0.16092,0.16381,0.16701,0.17052,0.17438,0.17881,0.18368,0.1891,0.19503,0.2013,0.20842,0.21595,0.22393,0.23269,0.24186,0.25167,0.26181,0.27198,0.28261,0.29314,0.30357,0.31388,0.32372,0.33345,0.34264,0.35111,0.35921,0.36645,0.37316,0.37904,0.38416,0.38869,0.39255,0.3958,0.39858,0.40089,0.40287,0.40455,0.40593,0.40713,0.4081,0.40894,0.40961,0.41012,0.41049,0.41068,0.4107,0.41056,0.41022,0.40971,0.40907,0.4083,0.40742,0.40645,0.40539,0.40426,0.40307,0.40179,0.40051,0.39914,0.39772,0.39625,0.39473,0.39318,0.39167,0.39015,0.38865,0.38713,0.38566,0.3843,0.38292,0.38162,0.38034,0.37913,0.37806,0.377,0.37604,0.37519,0.37441,0.3737,0.37306,0.37245,0.37195,0.37148,0.37103,0.37061,0.37023,0.36989,0.36956,0.36926,0.36895,0.36864,0.36834,0.36802,0.36769,0.36728,0.36683,0.36629,0.36568,0.36495,0.36414,0.36321,0.36219,0.36102,0.35972,0.35831,0.35675,0.35509,0.35328,0.35134,0.34932,0.34719,0.34502,0.34275,0.34042,0.33811,0.33576,0.33343,0.33106,0.3287,0.32641,0.32411,0.32187,0.31963,0.31741,0.31528,0.31316,0.3111,0.30906,0.30707,0.30517,0.3033,0.3015,0.29975,0.29808,0.29653,0.29504,0.29368,0.29242,0.29129,0.29033,0.28953,0.28886,0.2883,0.28788,0.28764,0.28757,0.28776,0.2883,0.28918,0.29049,0.29224,0.2944,0.29716,0.30032,0.30384,0.30763,0.31147,0.31535,0.319,0.32236,0.32538,0.32798,0.33021,0.33196,0.33328,0.33426,0.33499,0.33564,0.33621,0.33676,0.33733,0.3379,0.33847,0.33896,0.33933,0.33954,0.33958,0.33954,0.33953,0.3396,0.3399,0.34044,0.34123,0.34216,0.34319,0.34423,0.34516,0.346,0.3467,0.3473,0.34777,0.34812,0.34836,0.34849,0.34851,0.3485,0.34847,0.34841,0.34826,0.34798,0.3475,0.34677,0.34584,0.34467,0.34329,0.34181,0.34016,0.33844,0.33666,0.33484,0.33306,0.33125,0.32952,0.32786,0.32631,0.32488,0.32351,0.32228,0.32108,0.31995,0.3188,0.31761,0.3164,0.31509,0.31372,0.31227,0.31073,0.30916,0.30751,0.30584,0.30411,0.30244,0.30086,0.2994,0.29816,0.29715,0.2964,0.29594,0.29583,0.29607,0.29666,0.29762,0.29899,0.30072,0.30298,0.30572,0.30896,0.313,0.31761,0.32297,0.32912,0.33616,0.34424,0.35336,0.36386,0.37536,0.38812,0.40188,0.41643,0.43193,0.44773,0.46395,0.47999,0.49566,0.51069,0.5248,0.53822,0.55048,0.56185,0.57212,0.5813,0.58952,0.59665,0.60273,0.60762,0.6114,0.61387,0.61513,0.6153,0.61438,0.61256,0.60994,0.60671,0.60298,0.59895,0.59464,0.59024,0.58571,0.58117,0.57665,0.5722,0.56773,0.56331,0.55892,0.55456,0.55024,0.54595,0.54171,0.53749,0.5333,0.52911,0.52493,0.52081,0.51679,0.51285,0.50906,0.50546,0.50202,0.49885,0.49593,0.49328,0.49097,0.48905,0.48749,0.48634,0.48557,0.48527,0.48537,0.48589,0.48687,0.48826,0.49011,0.49237,0.49503,0.49812,0.50161,0.50533,0.50926,0.51343,0.51772,0.52216,0.52672,0.53132,0.53602,0.54061,0.54519,0.54959,0.55387,0.55799,0.56188,0.56563,0.56912,0.57249,0.57558,0.57861,0.58142,0.58408,0.58664,0.58905,0.59134,0.59345,0.59545,0.59727,0.59897,0.60052,0.60194,0.60322,0.60431,0.6053,0.60616,0.60685,0.60739,0.60777,0.60801,0.60802,0.60791,0.60768,0.60731,0.60678,0.60608,0.60529,0.60431,0.60313,0.60179,0.60035,0.59867,0.59692,0.59504,0.59313,0.59112,0.58906,0.58705,0.58483,0.58267,0.58027,0.5779,0.57535,0.57285,0.57031,0.5678,0.56529,0.56278,0.56037,0.55793,0.55565,0.55327,0.55093,0.54848,0.54608,0.54358,0.54106,0.5385,0.53591,0.53331,0.53063,0.52805,0.52538,0.52293,0.5204,0.51811,0.5157,0.51344,0.51119,0.50906,0.50701,0.50502,0.50315,0.50142,0.49983,0.49833,0.49707,0.49596,0.49511,0.49449,0.49417,0.49427,0.49474,0.49566,0.49706,0.49905,0.50162,0.50482,0.50861,0.51298,0.51796,0.5234,0.52942,0.53576,0.5425,0.54935,0.5565,0.5634,0.57045,0.57725,0.58404,0.59073,0.59746,0.60414,0.61077,0.61718,0.62313,0.62831,0.63241,0.63531,0.63695,0.63773,0.63797,0.63817,0.6386,0.6397,0.64153,0.64402,0.64691,0.6499,0.65259,0.65478,0.65603,0.6565,0.65641,0.65587,0.65509,0.65424,0.65343,0.65258,0.65169,0.65072,0.64978,0.64904,0.64827,0.64779,0.64765,0.64765,0.64765,0.64746,0.64695,0.64591,0.64451,0.64276,0.64106,0.6396,0.63843,0.63766,0.63725,0.63702,0.63697,0.63695,0.63692,0.63681,0.63664,0.63648,0.63626,0.63611,0.63599,0.63608,0.63637,0.63679,0.63747,0.63845,0.63976,0.64135,0.64341,0.64571,0.64842,0.65124,0.65441,0.65775,0.66134,0.6649,0.66864,0.67226,0.67594,0.67966,0.68344,0.68725,0.69125,0.69508,0.69916,0.70323,0.70736,0.71147,0.71579,0.72004,0.72419,0.72833,0.73245,0.73664,0.7405,0.74449,0.74825,0.75211,0.75572,0.7594,0.76297,0.76637,0.76955,0.7727,0.7759,0.77886,0.78152,0.78401,0.78599,0.7877,0.78905,0.79027,0.7912,0.7918,0.79204,0.79225,0.79212,0.79174,0.79116
-0.013395,-0.013476,-0.013529,-0.01351,-0.013475,-0.013374,-0.013221,-0.013039,-0.012748,-0.012364,-0.011845,-0.011206,-0.010312,-0.0092002,-0.007814,-0.0061521,-0.0041356,-0.0018469,0.0007319,0.0035226,0.0066113,0.0098575,0.013237,0.016797,0.020459,0.024141,0.027845,0.031511,0.035138,0.038634,0.041959,0.045162,0.048138,0.050858,0.053445,0.055909,0.058318,0.060693,0.063039,0.065436,0.067864,0.070218,0.072573,0.074844,0.07698,0.078915,0.080629,0.082124,0.08336,0.084298,0.084997,0.085411,0.085546,0.085378,0.084906,0.08412,0.08303,0.081669,0.080019,0.078175,0.076233,0.074214,0.072208,0.070218,0.068309,0.066527,0.064829,0.063261,0.061864,0.060574,0.059457,0.058451,0.057569,0.056818,0.056161,0.055582,0.055091,0.054645,0.054262,0.053901,0.053577,0.053263,0.052955,0.05265,0.052335,0.052001,0.051639,0.051257,0.050838,0.050406,0.049935,0.049463,0.048991,0.048516,0.048078,0.047679,0.04733,0.047052,0.046846,0.046718,0.046676,0.046725,0.04688,0.04714,0.047518,0.048018,0.048666,0.049447,0.050375,0.05147,0.052689,0.054119,0.05572,0.057451,0.059421,0.061524,0.06379,0.06623,0.06874,0.071461,0.07426,0.077096,0.080084,0.083066,0.086107,0.08915,0.092122,0.095171,0.098149,0.10095,0.10374,0.10636,0.10892,0.11136,0.11367,0.116,0.11827,0.1205,0.12281,0.12518,0.12779,0.13067,0.13384,0.1375,0.14156,0.14607,0.15104,0.15633,0.16234,0.16874,0.17563,0.18312,0.191,0.19946,0.20824,0.217,0.22632,0.23557,0.24479,0.25392,0.26267,0.27138,0.27965,0.28729,0.2946,0.30119,0.30732,0.31272,0.31741,0.32155,0.32506,0.32799,0.3305,0.33258,0.33435,0.33586,0.33711,0.33819,0.33909,0.33985,0.34047,0.34092,0.34124,0.34141,0.34143,0.34127,0.34097,0.34049,0.33987,0.33913,0.33828,0.33735,0.33635,0.33526,0.33414,0.33294,0.3317,0.33038,0.32907,0.32772,0.32629,0.32489,0.32349,0.32209,0.32071,0.3193,0.31792,0.31665,0.31542,0.31424,0.3131,0.312,0.311,0.31007,0.30922,0.30842,0.30775,0.30713,0.30656,0.30604,0.30559,0.30519,0.30482,0.30449,0.30416,0.30386,0.30358,0.30331,0.30304,0.30279,0.30253,0.30225,0.30194,0.30159,0.30117,0.30068,0.30012,0.29947,0.29875,0.29791,0.297,0.29595,0.29477,0.29351,0.2921,0.29062,0.28899,0.28725,0.28544,0.28351,0.28155,0.27951,0.27743,0.27536,0.27324,0.27114,0.26901,0.26689,0.26482,0.26276,0.26074,0.25875,0.25677,0.25487,0.25297,0.25114,0.24932,0.24755,0.24588,0.24421,0.24263,0.24108,0.23958,0.23821,0.23688,0.23568,0.23456,0.23354,0.23269,0.23196,0.23133,0.23081,0.2304,0.23012,0.23,0.23009,0.23047,0.23112,0.23216,0.23358,0.23535,0.23764,0.24025,0.24318,0.24637,0.24959,0.25287,0.25595,0.25881,0.26139,0.2636,0.26546,0.26693,0.26803,0.26884,0.26944,0.26994,0.2704,0.27084,0.2713,0.27175,0.27219,0.27255,0.27283,0.27298,0.27302,0.27299,0.27301,0.27316,0.2735,0.27405,0.27479,0.27566,0.27661,0.27756,0.27841,0.27916,0.27978,0.28031,0.28075,0.28108,0.28132,0.28149,0.28157,0.28161,0.28164,0.28165,0.28157,0.28136,0.28095,0.28033,0.27952,0.27849,0.27729,0.27597,0.27449,0.27296,0.27139,0.26979,0.26819,0.26657,0.26504,0.26357,0.26218,0.2609,0.25969,0.25859,0.25754,0.25654,0.25554,0.2545,0.25342,0.25225,0.25104,0.24974,0.2484,0.24703,0.24556,0.24409,0.24257,0.2411,0.2397,0.23843,0.23735,0.23645,0.23577,0.23534,0.23522,0.23541,0.23591,0.23672,0.23789,0.23939,0.24133,0.24371,0.24655,0.25006,0.25406,0.25871,0.26408,0.27024,0.27736,0.28543,0.29471,0.30491,0.31636,0.32876,0.34188,0.356,0.3705,0.38543,0.40026,0.41478,0.42882,0.44207,0.45465,0.46625,0.47699,0.48673,0.49547,0.50337,0.51019,0.516,0.52068,0.52431,0.52664,0.52783,0.52795,0.52703,0.52517,0.52255,0.51931,0.51563,0.51167,0.50748,0.5032,0.49873,0.49427,0.48984,0.48545,0.4811,0.47676,0.47246,0.4682,0.46398,0.4598,0.45567,0.45159,0.44752,0.44352,0.43956,0.43565,0.43182,0.42812,0.4246,0.4212,0.41798,0.415,0.4123,0.40989,0.40776,0.40598,0.40458,0.40355,0.4029,0.40264,0.40276,0.40326,0.40418,0.4055,0.40725,0.40937,0.41187,0.41473,0.41801,0.42148,0.42517,0.42912,0.43317,0.43732,0.44154,0.44587,0.4503,0.45466,0.45901,0.46318,0.46729,0.47122,0.47505,0.47875,0.48225,0.48562,0.48879,0.49185,0.49473,0.49753,0.50015,0.50257,0.50488,0.50705,0.50907,0.511,0.51275,0.5143,0.51573,0.51698,0.51807,0.5191,0.51994,0.52058,0.52105,0.52138,0.52155,0.52159,0.52148,0.52121,0.52078,0.52019,0.51948,0.51864,0.51761,0.51641,0.51502,0.51353,0.51182,0.51005,0.50816,0.50615,0.50407,0.50193,0.49984,0.49759,0.49538,0.49291,0.49047,0.48789,0.48536,0.48279,0.48018,0.47761,0.47504,0.47258,0.47009,0.46777,0.46534,0.46301,0.46059,0.4582,0.45574,0.45332,0.45086,0.44832,0.44587,0.44336,0.44095,0.43849,0.43616,0.4338,0.43155,0.42932,0.42723,0.42515,0.42316,0.42129,0.41951,0.41785,0.41623,0.41477,0.41341,0.41225,0.41127,0.41051,0.40995,0.40963,0.40971,0.41017,0.41105,0.41238,0.41419,0.41655,0.41952,0.42305,0.42706,0.43166,0.43674,0.44227,0.44807,0.45425,0.46054,0.4671,0.47347,0.48,0.48633,0.4927,0.49894,0.50528,0.51154,0.5178,0.52385,0.52953,0.53434,0.53813,0.54069,0.54213,0.54262,0.54255,0.5424,0.54254,0.54323,0.54468,0.54679,0.5493,0.55205,0.55465,0.55678,0.5583,0.55913,0.55937,0.55927,0.55884,0.5584,0.55777,0.55704,0.55617,0.55522,0.55427,0.55336,0.55254,0.55194,0.55155,0.5512,0.55088,0.55038,0.54972,0.54868,0.54738,0.54589,0.54443,0.5431,0.54218,0.54162,0.54131,0.5411,0.54099,0.54093,0.54083,0.54074,0.5406,0.54032,0.54008,0.53996,0.53994,0.54001,0.54018,0.54061,0.54136,0.54231,0.54357,0.54506,0.54701,0.54918,0.5517,0.55464,0.55771,0.56092,0.56436,0.5679,0.5716,0.57525,0.57891,0.58265,0.58651,0.59029,0.59408,0.59791,0.60192,0.606,0.61007,0.61425,0.6184,0.6227,0.62701,0.63127,0.63517,0.63918,0.64316,0.64717,0.65091,0.6547,0.65824,0.662,0.66556,0.66905,0.67231,0.67549,0.6787,0.68181,0.68441,0.68689,0.68902,0.69099,0.69248,0.69381,0.69442,0.69508,0.69546,0.69548,0.69526,0.69493,0.69433
-0.013035,-0.013121,-0.013162,-0.013152,-0.013105,-0.012995,-0.012829,-0.01263,-0.012313,-0.011905,-0.011354,-0.010671,-0.0097224,-0.0085486,-0.0070788,-0.0053174,-0.0031791,-0.0007448,0.0019883,0.0049468,0.0082191,0.011659,0.015228,0.019001,0.02289,0.026791,0.030708,0.034585,0.038422,0.042129,0.045639,0.049017,0.052157,0.055023,0.057755,0.060345,0.062874,0.065364,0.067814,0.070331,0.072869,0.075333,0.077803,0.08018,0.082411,0.08443,0.086227,0.087787,0.089076,0.090052,0.090783,0.091215,0.091364,0.091202,0.090726,0.089912,0.088768,0.087353,0.085639,0.083708,0.081671,0.079553,0.077447,0.075352,0.073341,0.071468,0.069682,0.06803,0.066559,0.065201,0.064026,0.06297,0.06205,0.061258,0.060567,0.059954,0.059432,0.058963,0.058559,0.058182,0.05784,0.057505,0.057173,0.056851,0.05652,0.056173,0.055795,0.055387,0.054955,0.054491,0.053996,0.053498,0.053006,0.052518,0.052061,0.051639,0.05128,0.050989,0.050771,0.05064,0.0506,0.050653,0.050816,0.051095,0.051495,0.052022,0.052709,0.053535,0.054515,0.055674,0.05696,0.058469,0.06016,0.061984,0.064055,0.066269,0.068645,0.071208,0.073857,0.076715,0.07965,0.08262,0.085736,0.088841,0.092019,0.095208,0.098295,0.10147,0.10456,0.10748,0.11038,0.1131,0.11576,0.1183,0.1207,0.12315,0.12551,0.12785,0.13023,0.13268,0.1354,0.13838,0.14167,0.14546,0.14963,0.15426,0.15937,0.16477,0.17091,0.17744,0.18444,0.19206,0.20008,0.20863,0.21744,0.22638,0.23577,0.24507,0.25435,0.26351,0.27227,0.28101,0.28926,0.29689,0.3042,0.31079,0.31691,0.32229,0.32695,0.33108,0.33456,0.33749,0.33998,0.34205,0.34382,0.34535,0.3466,0.34769,0.34858,0.34934,0.34996,0.35042,0.35073,0.35089,0.3509,0.35075,0.35044,0.34999,0.3494,0.34867,0.34784,0.3469,0.34591,0.34483,0.34371,0.3425,0.34123,0.33992,0.3386,0.33723,0.33584,0.33443,0.33301,0.33163,0.33025,0.32889,0.32756,0.32632,0.32511,0.32395,0.32283,0.32173,0.32077,0.31983,0.31897,0.3182,0.31749,0.31686,0.31628,0.31576,0.31532,0.3149,0.31452,0.31417,0.31383,0.31353,0.31325,0.31296,0.31269,0.31243,0.31216,0.31188,0.31156,0.3112,0.31079,0.31031,0.30976,0.30911,0.30838,0.30756,0.30665,0.30559,0.30442,0.30315,0.30175,0.30027,0.29865,0.2969,0.29507,0.29316,0.29122,0.28919,0.28712,0.28505,0.28294,0.28085,0.27873,0.27661,0.27455,0.27249,0.27046,0.26844,0.26646,0.26456,0.26268,0.26085,0.25903,0.25725,0.25557,0.2539,0.25232,0.25077,0.24929,0.24792,0.2466,0.2454,0.2443,0.24331,0.24247,0.24175,0.24113,0.24063,0.24023,0.23997,0.23986,0.23997,0.24036,0.24106,0.24211,0.24355,0.24537,0.2477,0.25037,0.25334,0.25657,0.25984,0.26317,0.26632,0.26923,0.27185,0.2741,0.27602,0.27754,0.2787,0.27955,0.2802,0.28075,0.28124,0.28171,0.28219,0.28265,0.2831,0.28346,0.28373,0.28386,0.28386,0.28379,0.28376,0.28385,0.28414,0.28464,0.28536,0.28622,0.28717,0.2881,0.28895,0.28972,0.29035,0.29092,0.29135,0.2917,0.29193,0.29208,0.29213,0.29216,0.29217,0.29214,0.29204,0.2918,0.29139,0.29076,0.28992,0.28889,0.28771,0.28639,0.28492,0.2834,0.28182,0.28024,0.27865,0.27703,0.27551,0.27403,0.27266,0.27138,0.27016,0.26907,0.26801,0.26701,0.266,0.26495,0.26388,0.2627,0.26149,0.2602,0.25884,0.25745,0.25598,0.25451,0.25301,0.25153,0.25012,0.24883,0.24774,0.24683,0.24616,0.24575,0.24565,0.24583,0.24633,0.24713,0.24832,0.24983,0.25177,0.25416,0.25699,0.26051,0.26451,0.2692,0.2746,0.28078,0.28788,0.29592,0.30518,0.3154,0.32676,0.3391,0.35218,0.36616,0.38055,0.39534,0.41008,0.42447,0.43837,0.45145,0.46392,0.47538,0.48603,0.49566,0.50431,0.51206,0.51882,0.52459,0.52921,0.53277,0.5351,0.53629,0.53641,0.53549,0.53364,0.53105,0.52789,0.52425,0.52032,0.51618,0.51193,0.50752,0.50314,0.49876,0.49443,0.49014,0.4859,0.48167,0.47744,0.47327,0.46915,0.46507,0.46103,0.45702,0.45308,0.44913,0.44528,0.44153,0.43786,0.43435,0.43101,0.42782,0.42486,0.42217,0.41975,0.41763,0.41588,0.4145,0.41347,0.41281,0.41255,0.41268,0.41317,0.41405,0.41537,0.41705,0.41914,0.4216,0.42447,0.42769,0.43112,0.43476,0.4386,0.44255,0.44663,0.45084,0.45512,0.45948,0.46376,0.46805,0.4722,0.47632,0.48026,0.48402,0.48765,0.49108,0.49442,0.49754,0.5006,0.50347,0.50617,0.50875,0.51119,0.5135,0.5156,0.51764,0.51949,0.52123,0.52275,0.52412,0.52532,0.52641,0.52739,0.52818,0.52886,0.52937,0.52972,0.52982,0.52981,0.52966,0.52943,0.52899,0.52843,0.52774,0.52691,0.52587,0.52473,0.52338,0.52189,0.52023,0.51845,0.51656,0.51459,0.51258,0.5105,0.50844,0.50623,0.50402,0.5016,0.49923,0.4967,0.49419,0.49167,0.48913,0.48663,0.48407,0.48166,0.4792,0.47692,0.47454,0.47227,0.46991,0.46755,0.46513,0.46273,0.46032,0.45783,0.45542,0.45292,0.45051,0.44807,0.4458,0.44351,0.44133,0.43915,0.43708,0.43504,0.4331,0.43122,0.42946,0.42779,0.42625,0.4248,0.42349,0.4224,0.42141,0.42066,0.42016,0.41993,0.42007,0.42056,0.42146,0.42278,0.42468,0.42709,0.43003,0.4335,0.43752,0.44209,0.44707,0.45255,0.45827,0.46435,0.47055,0.47703,0.48333,0.48976,0.49594,0.50222,0.50838,0.51464,0.52074,0.52696,0.53292,0.53842,0.54322,0.54695,0.5495,0.55087,0.55134,0.55137,0.55125,0.55142,0.55216,0.55363,0.55579,0.55831,0.56107,0.56366,0.56575,0.56715,0.56798,0.56819,0.56799,0.56755,0.56703,0.5664,0.56571,0.56485,0.56393,0.56296,0.56203,0.56131,0.56066,0.56022,0.56,0.55977,0.55944,0.55884,0.5578,0.55649,0.55498,0.5535,0.55225,0.55117,0.55044,0.55015,0.54995,0.54999,0.55,0.54987,0.54985,0.54974,0.54961,0.54945,0.54924,0.54914,0.54921,0.54941,0.54985,0.55059,0.55155,0.55277,0.55437,0.55621,0.55834,0.5609,0.56378,0.5669,0.57019,0.57357,0.577,0.58061,0.5842,0.58791,0.59149,0.59523,0.59901,0.60272,0.60661,0.61048,0.61444,0.61843,0.6225,0.62676,0.63081,0.63501,0.63908,0.64312,0.64716,0.65113,0.65495,0.65872,0.66246,0.66605,0.66963,0.67312,0.67669,0.68012,0.68359,0.68655,0.68956,0.69225,0.69476,0.69682,0.69869,0.70013,0.70125,0.70203,0.70283,0.70305,0.70306,0.70284,0.70255,0.70209
-0.0008672,-0.0009451,-0.0009693,-0.0009419,-0.0008788,-0.000743,-0.0005521,-0.0002927,7.11e-05,0.0005472,0.001195,0.0020079,0.0031141,0.0044842,0.0061936,0.0082453,0.010722,0.01353,0.016679,0.020078,0.023822,0.027747,0.031804,0.036073,0.040456,0.044865,0.049294,0.053673,0.058018,0.062209,0.066198,0.070047,0.073629,0.076907,0.080033,0.082999,0.085909,0.088743,0.091533,0.094381,0.097249,0.10002,0.10276,0.10541,0.10786,0.11006,0.112,0.11366,0.11502,0.11603,0.11676,0.11716,0.11724,0.11699,0.11638,0.1154,0.11407,0.11243,0.11046,0.10827,0.10597,0.10357,0.1012,0.098835,0.096573,0.09447,0.092463,0.090597,0.088943,0.087409,0.086067,0.084867,0.083804,0.082894,0.082085,0.081374,0.080777,0.080231,0.079768,0.079331,0.078938,0.078566,0.078206,0.077857,0.077499,0.077112,0.076702,0.076259,0.075776,0.075266,0.074714,0.074146,0.073592,0.073035,0.072526,0.072045,0.071628,0.071303,0.071065,0.070922,0.07088,0.070956,0.071153,0.071485,0.07196,0.072568,0.073364,0.074319,0.075452,0.076784,0.078259,0.079982,0.08191,0.083988,0.086349,0.088872,0.091592,0.094519,0.097544,0.10083,0.1042,0.10759,0.11117,0.11474,0.11838,0.12202,0.12556,0.12921,0.13274,0.13607,0.13938,0.14249,0.14555,0.14846,0.15123,0.15403,0.15674,0.15942,0.16218,0.16503,0.16819,0.17167,0.1755,0.17992,0.18479,0.19018,0.1961,0.20235,0.20945,0.21694,0.22493,0.23366,0.24281,0.25258,0.26269,0.27281,0.2834,0.29387,0.30422,0.31446,0.32421,0.33386,0.34295,0.35132,0.35932,0.36647,0.37311,0.37892,0.384,0.3885,0.39233,0.39558,0.39836,0.40069,0.40269,0.40437,0.40576,0.40697,0.40795,0.40879,0.40948,0.41,0.41036,0.41055,0.41058,0.41042,0.41008,0.40958,0.40894,0.40815,0.40727,0.40628,0.40524,0.40409,0.40291,0.40164,0.40033,0.39894,0.39749,0.39601,0.39448,0.39295,0.39143,0.38991,0.38841,0.38688,0.38538,0.38398,0.38259,0.38124,0.37995,0.37871,0.3776,0.37654,0.37557,0.37468,0.37385,0.37312,0.37243,0.37179,0.37122,0.37071,0.37022,0.36979,0.36935,0.36894,0.36858,0.36824,0.36791,0.36757,0.36725,0.3669,0.36652,0.36609,0.36563,0.36507,0.36445,0.36371,0.36287,0.36192,0.36089,0.35971,0.35841,0.35702,0.35547,0.35383,0.35204,0.35012,0.34811,0.34601,0.34385,0.3416,0.33931,0.33703,0.33471,0.33241,0.33008,0.32775,0.3255,0.32326,0.32105,0.31885,0.31668,0.3146,0.31253,0.31052,0.30852,0.30658,0.30472,0.30289,0.30116,0.29946,0.29785,0.29638,0.29496,0.29368,0.29251,0.2915,0.29068,0.29001,0.28947,0.28906,0.28876,0.28863,0.28868,0.28897,0.2896,0.29057,0.29193,0.29373,0.2959,0.29862,0.30172,0.30517,0.30887,0.31261,0.31638,0.31994,0.32322,0.3262,0.32881,0.33103,0.3328,0.33414,0.33516,0.33597,0.33666,0.33731,0.33794,0.33858,0.33919,0.33975,0.34019,0.34049,0.3406,0.34058,0.34043,0.34033,0.34033,0.34054,0.341,0.34168,0.34253,0.3435,0.34446,0.34532,0.34609,0.34675,0.34733,0.34779,0.34813,0.34835,0.34846,0.34847,0.34842,0.34837,0.34826,0.34809,0.34778,0.34728,0.34657,0.34566,0.34454,0.34326,0.34185,0.34026,0.33862,0.33692,0.33516,0.33344,0.33168,0.33001,0.32839,0.32687,0.32546,0.32412,0.32291,0.32172,0.32058,0.31946,0.31828,0.31708,0.31577,0.31441,0.31297,0.31146,0.30993,0.3083,0.30667,0.30499,0.3034,0.30186,0.30044,0.29926,0.29827,0.29754,0.29711,0.29703,0.29729,0.29789,0.29885,0.30022,0.30197,0.30422,0.30696,0.31023,0.31429,0.31892,0.32434,0.33052,0.33762,0.34575,0.35491,0.36544,0.37701,0.38985,0.40367,0.41827,0.43383,0.4497,0.46597,0.48208,0.49771,0.51274,0.52682,0.54009,0.55225,0.56351,0.57367,0.58272,0.59078,0.59774,0.60364,0.60839,0.61201,0.61437,0.61555,0.61567,0.6148,0.61289,0.61032,0.60718,0.60354,0.59955,0.59533,0.591,0.58653,0.58204,0.57754,0.57312,0.5687,0.56434,0.56001,0.55573,0.5515,0.54726,0.54309,0.53892,0.53475,0.53061,0.52648,0.52238,0.51835,0.51445,0.51071,0.50709,0.50369,0.50049,0.49753,0.49488,0.49252,0.49058,0.48899,0.48778,0.48696,0.48658,0.48663,0.4871,0.48799,0.48936,0.49113,0.49333,0.49588,0.49889,0.5023,0.50591,0.50975,0.5138,0.51801,0.52236,0.52681,0.53134,0.53591,0.54041,0.54492,0.54921,0.55338,0.55739,0.56116,0.56472,0.56803,0.57124,0.57422,0.57713,0.57977,0.5823,0.58467,0.58692,0.58909,0.59111,0.59298,0.59467,0.59624,0.5977,0.59904,0.60024,0.60128,0.60225,0.60304,0.60372,0.60422,0.60454,0.60473,0.6048,0.60468,0.60448,0.6041,0.60358,0.6029,0.6021,0.60112,0.60002,0.59874,0.59723,0.59562,0.59389,0.59213,0.59028,0.58845,0.58656,0.58464,0.58256,0.58049,0.57819,0.57586,0.57341,0.57096,0.56852,0.56608,0.56371,0.56134,0.55903,0.55671,0.55447,0.5522,0.54999,0.54766,0.54533,0.54291,0.54047,0.538,0.53551,0.53302,0.53044,0.52794,0.52533,0.52291,0.5205,0.51825,0.51593,0.51374,0.51159,0.50954,0.50761,0.50574,0.50391,0.50227,0.50079,0.49936,0.49818,0.49712,0.4963,0.49581,0.4956,0.49586,0.49651,0.49764,0.49921,0.50139,0.50416,0.50746,0.51136,0.51582,0.52085,0.52633,0.53237,0.5386,0.54514,0.55171,0.55852,0.56513,0.57179,0.57824,0.58466,0.59094,0.59731,0.60357,0.60979,0.61568,0.62124,0.6261,0.6299,0.63254,0.63418,0.63491,0.63515,0.63551,0.63618,0.6374,0.63922,0.64164,0.64452,0.64747,0.65019,0.65226,0.65352,0.65394,0.65386,0.65337,0.65269,0.65197,0.65119,0.65045,0.64966,0.64884,0.64802,0.64725,0.64672,0.6464,0.64636,0.64643,0.64653,0.64637,0.64589,0.64493,0.64352,0.64178,0.6402,0.63881,0.63765,0.63694,0.63653,0.6363,0.63618,0.63609,0.63595,0.63582,0.63564,0.63557,0.63539,0.63528,0.63528,0.63536,0.63567,0.63607,0.6367,0.63762,0.63886,0.64038,0.64226,0.64436,0.64679,0.64934,0.65232,0.65543,0.65861,0.66195,0.66539,0.66885,0.67251,0.67599,0.6797,0.68335,0.687,0.69065,0.69453,0.69845,0.70248,0.70655,0.71092,0.71504,0.71921,0.72332,0.72743,0.73143,0.73541,0.7393,0.74299,0.74679,0.75028,0.75395,0.75739,0.76099,0.76435,0.76758,0.77054,0.77336,0.77588,0.77838,0.78046,0.78225,0.78371,0.78503,0.78587,0.78642,0.78658,0.78668,0.78649,0.78621,0.78585
-0.0013006,-0.001381,-0.0014029,-0.0013871,-0.0013099,-0.0011869,-0.0009899,-0.0007326,-0.0003805,9.98e-05,0.0007428,0.0015608,0.0026786,0.0040668,0.0057939,0.007872,0.010396,0.013254,0.016463,0.019936,0.023757,0.027772,0.031921,0.036287,0.040776,0.045281,0.049811,0.054294,0.058742,0.063033,0.067115,0.071059,0.074751,0.078138,0.081368,0.084442,0.08745,0.090399,0.093296,0.096258,0.099225,0.10209,0.10493,0.10766,0.1102,0.11248,0.11449,0.11621,0.11761,0.11864,0.11938,0.11978,0.11985,0.11957,0.11892,0.11789,0.1165,0.1148,0.11278,0.11054,0.10818,0.10574,0.10331,0.10092,0.098614,0.096465,0.094412,0.092516,0.090823,0.089259,0.087891,0.086656,0.085577,0.084643,0.083826,0.08311,0.082501,0.081948,0.081479,0.081048,0.08066,0.08029,0.079919,0.079563,0.079198,0.078803,0.078379,0.077926,0.07744,0.076917,0.076345,0.075762,0.075189,0.074617,0.074088,0.073595,0.073175,0.072844,0.072595,0.07245,0.072404,0.072474,0.072682,0.073021,0.073509,0.074135,0.074954,0.075936,0.077097,0.078469,0.079988,0.081765,0.083754,0.085892,0.088328,0.090927,0.093734,0.096754,0.09987,0.10324,0.1067,0.1102,0.11389,0.11756,0.12131,0.12505,0.12869,0.13243,0.13606,0.13949,0.14289,0.1461,0.14924,0.15224,0.15509,0.15799,0.1608,0.16357,0.16642,0.16935,0.17261,0.17619,0.18014,0.18469,0.18971,0.19528,0.20138,0.20785,0.21515,0.22288,0.23116,0.24018,0.24962,0.25969,0.27009,0.28052,0.29143,0.30222,0.31289,0.32344,0.3335,0.34345,0.35284,0.36147,0.36972,0.3771,0.38394,0.38994,0.39515,0.39978,0.40372,0.40705,0.40991,0.41229,0.41434,0.41609,0.41752,0.41878,0.4198,0.42065,0.42135,0.42189,0.42227,0.42247,0.42252,0.42235,0.42202,0.4215,0.42086,0.42007,0.41919,0.41821,0.41715,0.416,0.41479,0.4135,0.41212,0.4107,0.4092,0.40769,0.40611,0.40454,0.40293,0.40138,0.3999,0.39838,0.39691,0.39552,0.39416,0.39285,0.3916,0.3904,0.38929,0.38824,0.38727,0.38639,0.38557,0.38485,0.38417,0.38354,0.383,0.38248,0.38199,0.38155,0.38112,0.38072,0.38034,0.38,0.37966,0.37932,0.37898,0.37862,0.37823,0.3778,0.37733,0.37677,0.37612,0.37537,0.37452,0.37356,0.37249,0.37127,0.36994,0.3685,0.3669,0.36519,0.36333,0.36135,0.35928,0.35709,0.35487,0.35255,0.35017,0.3478,0.34539,0.34301,0.34059,0.33817,0.33583,0.33349,0.33121,0.32892,0.32667,0.32451,0.32235,0.32027,0.31818,0.31615,0.31423,0.31232,0.31051,0.30873,0.30704,0.30547,0.30397,0.3026,0.30134,0.30024,0.29932,0.29856,0.29794,0.29746,0.2971,0.29692,0.29692,0.29718,0.29779,0.29876,0.30015,0.30201,0.30426,0.30712,0.31034,0.31394,0.31781,0.3217,0.32562,0.32931,0.33269,0.33575,0.33837,0.3406,0.34234,0.34367,0.34465,0.3454,0.34606,0.34667,0.34726,0.34789,0.34848,0.34907,0.34957,0.34994,0.35014,0.35019,0.35016,0.35014,0.35024,0.35055,0.3511,0.35186,0.35279,0.3538,0.35481,0.3557,0.35652,0.35716,0.35772,0.35817,0.35848,0.35871,0.35883,0.35885,0.35884,0.3588,0.35876,0.35862,0.35834,0.35785,0.35712,0.35618,0.35502,0.35366,0.35219,0.35053,0.34881,0.34703,0.34521,0.34342,0.34159,0.33985,0.33817,0.33659,0.33515,0.33377,0.33253,0.3313,0.33015,0.32898,0.32776,0.32653,0.32517,0.32378,0.32228,0.32072,0.31913,0.31744,0.31574,0.314,0.31231,0.31073,0.30927,0.30801,0.307,0.30626,0.30583,0.30577,0.30605,0.30667,0.30767,0.30911,0.31095,0.31327,0.31612,0.31951,0.32371,0.32853,0.33413,0.34056,0.3479,0.3563,0.3658,0.37671,0.38864,0.40187,0.41609,0.43111,0.44706,0.46333,0.48001,0.4965,0.51254,0.5279,0.5423,0.55595,0.56838,0.57989,0.59025,0.59948,0.60775,0.61488,0.62098,0.62587,0.62961,0.6321,0.63338,0.63358,0.63266,0.6308,0.6282,0.62495,0.62123,0.61718,0.61292,0.60853,0.60397,0.59942,0.59491,0.59039,0.58592,0.58148,0.57711,0.57276,0.56842,0.56414,0.55988,0.55565,0.55139,0.54715,0.54297,0.53881,0.53469,0.5307,0.52683,0.52312,0.51963,0.51633,0.51331,0.51057,0.50819,0.50618,0.50455,0.50333,0.50249,0.50211,0.50216,0.50262,0.50353,0.5049,0.50669,0.50893,0.51157,0.51465,0.51814,0.52186,0.52578,0.52997,0.53426,0.53874,0.5433,0.54797,0.55263,0.55722,0.56179,0.56623,0.5705,0.57461,0.57846,0.58217,0.58561,0.58893,0.59197,0.59489,0.59762,0.60019,0.60263,0.60495,0.60716,0.60921,0.61121,0.61294,0.61465,0.61613,0.61756,0.61881,0.61987,0.62079,0.62157,0.62228,0.62285,0.62327,0.62348,0.62355,0.6235,0.62329,0.62297,0.62243,0.62172,0.62094,0.61996,0.61884,0.61754,0.61609,0.61447,0.61275,0.61088,0.60901,0.60708,0.60514,0.60315,0.60104,0.59892,0.59661,0.59425,0.59183,0.58939,0.58694,0.5845,0.58208,0.57963,0.57726,0.5749,0.57264,0.57028,0.568,0.56562,0.56325,0.56075,0.55827,0.55572,0.55314,0.55053,0.54788,0.54529,0.54267,0.54022,0.53772,0.53538,0.53305,0.53082,0.5286,0.52648,0.52444,0.52249,0.52058,0.51884,0.51722,0.51577,0.51449,0.51336,0.51248,0.51189,0.51162,0.51176,0.51232,0.51331,0.51481,0.51688,0.51961,0.52292,0.5268,0.53133,0.53649,0.54208,0.54821,0.55463,0.56136,0.56815,0.57525,0.58213,0.5891,0.59581,0.60258,0.60916,0.61577,0.6223,0.62879,0.63501,0.64083,0.64575,0.64977,0.65254,0.65423,0.65507,0.65529,0.65556,0.65617,0.65735,0.65918,0.66176,0.66458,0.66766,0.67036,0.67249,0.6737,0.67424,0.67416,0.67363,0.67296,0.67214,0.67138,0.67061,0.6698,0.66885,0.668,0.66722,0.66671,0.66645,0.66631,0.66627,0.66634,0.66627,0.66591,0.66493,0.66358,0.66187,0.66019,0.65877,0.65768,0.65689,0.6564,0.65616,0.65613,0.6562,0.65609,0.65593,0.65579,0.65568,0.65556,0.65539,0.65539,0.65553,0.65578,0.65631,0.65702,0.65809,0.6593,0.66087,0.66287,0.66503,0.66762,0.67047,0.67355,0.67676,0.68015,0.68359,0.68716,0.69078,0.69452,0.69824,0.70191,0.70564,0.70943,0.71322,0.71713,0.72125,0.72516,0.72936,0.7335,0.73765,0.74185,0.746,0.75008,0.75417,0.75806,0.76202,0.76589,0.7697,0.77323,0.77685,0.78025,0.78389,0.78719,0.79064,0.79378,0.79662,0.7991,0.80148,0.80351,0.80529,0.80655,0.80788,0.80883,0.80944,0.80977,0.80974,0.80947,0.80909,0.80846
-0.0072872,-0.0073691,-0.0074107,-0.0073834,-0.0073324,-0.007209,-0.0070318,-0.0068046,-0.0064741,-0.006037,-0.005459,-0.004728,-0.0037219,-0.0024719,-0.0009153,0.0009419,0.0031821,0.00572,0.0085624,0.011621,0.014981,0.018499,0.022135,0.025956,0.029877,0.033824,0.037795,0.041725,0.045632,0.049417,0.053019,0.056512,0.059779,0.062784,0.065656,0.06839,0.071062,0.073679,0.076262,0.07889,0.081531,0.084079,0.086611,0.089031,0.091288,0.0933,0.095067,0.09657,0.097798,0.098705,0.099348,0.099688,0.099736,0.099478,0.098904,0.097995,0.096769,0.09527,0.093483,0.091502,0.089417,0.087259,0.085118,0.082978,0.080943,0.079041,0.077227,0.075546,0.074046,0.072656,0.071439,0.070343,0.069384,0.068562,0.067836,0.067197,0.066654,0.066168,0.065756,0.065377,0.065029,0.064703,0.064383,0.064078,0.063758,0.063422,0.063062,0.062657,0.062223,0.061767,0.061261,0.060744,0.060229,0.059713,0.05924,0.058791,0.058411,0.058104,0.057871,0.05773,0.057681,0.057733,0.057899,0.058188,0.058606,0.059155,0.059868,0.060721,0.061736,0.062941,0.06427,0.065818,0.06756,0.069446,0.071593,0.073889,0.076373,0.079046,0.081812,0.084804,0.087881,0.091001,0.094285,0.097565,0.10091,0.10427,0.10752,0.11088,0.11413,0.1172,0.12026,0.12311,0.12592,0.1286,0.13113,0.1337,0.13618,0.13861,0.14112,0.14369,0.14653,0.14965,0.15311,0.15709,0.16148,0.16634,0.1717,0.17737,0.18381,0.19065,0.19794,0.20589,0.21418,0.22304,0.23226,0.24151,0.25121,0.2608,0.27031,0.27971,0.28869,0.2976,0.30599,0.31374,0.32112,0.32775,0.33387,0.33927,0.34397,0.34814,0.3517,0.3547,0.3573,0.35946,0.36132,0.3629,0.36422,0.36537,0.3663,0.3671,0.36776,0.36826,0.36861,0.36882,0.36887,0.36875,0.36847,0.36806,0.36752,0.36684,0.36607,0.36523,0.36431,0.36333,0.36228,0.36117,0.36003,0.35879,0.35749,0.35617,0.35482,0.35343,0.352,0.35062,0.34925,0.34785,0.34649,0.34519,0.34393,0.34268,0.34152,0.34038,0.33937,0.33838,0.33747,0.33666,0.33591,0.33524,0.3346,0.33402,0.33351,0.33307,0.33264,0.33224,0.33184,0.33149,0.33116,0.33085,0.33054,0.33025,0.32995,0.32965,0.3293,0.32892,0.32851,0.32802,0.32745,0.32678,0.32604,0.32518,0.32422,0.32313,0.32193,0.32061,0.31918,0.31764,0.31595,0.31416,0.31228,0.31031,0.3083,0.30619,0.30405,0.30192,0.29975,0.29761,0.29544,0.29327,0.29116,0.28905,0.28699,0.28492,0.2829,0.28095,0.279,0.27712,0.27526,0.27344,0.27172,0.27001,0.26837,0.26678,0.26526,0.26386,0.26252,0.2613,0.26019,0.25921,0.25839,0.25772,0.25716,0.25673,0.25642,0.25627,0.2563,0.25654,0.25711,0.25797,0.25921,0.26086,0.26287,0.26538,0.26824,0.27141,0.27482,0.27824,0.28168,0.2849,0.28786,0.29048,0.29272,0.29456,0.29598,0.29704,0.29783,0.29841,0.29892,0.29942,0.29991,0.30043,0.30095,0.30145,0.30188,0.30223,0.30245,0.30255,0.30259,0.30264,0.3028,0.30313,0.30366,0.30436,0.30517,0.30606,0.3069,0.30766,0.30831,0.30884,0.30929,0.30963,0.30989,0.31007,0.31019,0.31022,0.31023,0.31024,0.31021,0.31012,0.30988,0.30944,0.3088,0.30798,0.30693,0.30571,0.30438,0.3029,0.30136,0.29977,0.29814,0.29653,0.2949,0.29335,0.29186,0.29045,0.28917,0.28795,0.28683,0.28574,0.28472,0.28369,0.28262,0.28153,0.28032,0.27908,0.27775,0.27635,0.27492,0.2734,0.27187,0.2703,0.26879,0.26736,0.26603,0.26491,0.26399,0.26331,0.26288,0.26278,0.26297,0.26349,0.26435,0.26558,0.26715,0.26915,0.27163,0.27457,0.27824,0.28243,0.28734,0.29297,0.2994,0.30679,0.31513,0.32474,0.33529,0.34699,0.35959,0.37293,0.38714,0.40165,0.41657,0.43135,0.44578,0.45965,0.47269,0.48508,0.49644,0.50696,0.51645,0.52498,0.53261,0.53925,0.54491,0.54946,0.55293,0.55523,0.55642,0.55654,0.55566,0.55386,0.55139,0.5483,0.54478,0.54098,0.53696,0.53287,0.52862,0.52439,0.52018,0.51601,0.51189,0.5078,0.50373,0.49972,0.49579,0.49183,0.48793,0.48406,0.48019,0.47633,0.47251,0.46875,0.46506,0.46145,0.45797,0.45462,0.45145,0.4485,0.44581,0.44339,0.44125,0.43945,0.43801,0.43694,0.43625,0.43596,0.43606,0.43653,0.43744,0.43876,0.44046,0.44254,0.44497,0.44784,0.45109,0.45456,0.45821,0.46208,0.46609,0.47024,0.47446,0.47875,0.48307,0.48734,0.49158,0.49565,0.49962,0.50344,0.50703,0.51045,0.51371,0.51677,0.51962,0.52236,0.52493,0.52742,0.52972,0.5319,0.53399,0.53593,0.5378,0.53949,0.54114,0.54256,0.54391,0.54507,0.5461,0.54702,0.54781,0.5485,0.54897,0.54939,0.54964,0.54968,0.54961,0.54939,0.54907,0.54859,0.54796,0.54726,0.54634,0.54528,0.54404,0.54274,0.54126,0.53965,0.53797,0.53619,0.5344,0.53251,0.53064,0.52865,0.52669,0.52455,0.52233,0.52006,0.51779,0.51553,0.51323,0.51101,0.50878,0.50661,0.50435,0.50223,0.50004,0.49792,0.49571,0.4935,0.4912,0.4889,0.48656,0.48417,0.48181,0.47936,0.477,0.47457,0.47233,0.47009,0.46797,0.46581,0.46375,0.46172,0.45974,0.45783,0.45605,0.45432,0.45273,0.45124,0.44987,0.4487,0.44766,0.44685,0.44627,0.44598,0.44604,0.44647,0.44732,0.44864,0.4505,0.45288,0.45578,0.45924,0.46319,0.46775,0.47267,0.47812,0.48384,0.48998,0.49614,0.50258,0.5088,0.51517,0.52125,0.5274,0.53336,0.53952,0.54554,0.5515,0.55726,0.56264,0.56726,0.57092,0.5734,0.5748,0.57527,0.5753,0.5752,0.5753,0.576,0.57731,0.57931,0.58176,0.58428,0.58667,0.58867,0.59,0.59074,0.59094,0.59074,0.59032,0.58974,0.5891,0.58836,0.58757,0.58673,0.58582,0.58504,0.58442,0.58383,0.58344,0.5832,0.58301,0.58262,0.58199,0.58103,0.57976,0.57828,0.57695,0.57572,0.57476,0.57407,0.57372,0.57351,0.57339,0.57335,0.57327,0.57317,0.57301,0.57281,0.57264,0.57247,0.57236,0.5724,0.5726,0.57302,0.5737,0.5745,0.57576,0.5773,0.57908,0.58114,0.58358,0.58619,0.58913,0.59221,0.59543,0.59877,0.60222,0.60563,0.60911,0.61263,0.6162,0.61973,0.62341,0.62709,0.63091,0.63467,0.63853,0.64244,0.64644,0.65051,0.65439,0.65846,0.66237,0.66634,0.67016,0.67389,0.67755,0.68116,0.68453,0.68805,0.69132,0.69473,0.69791,0.7011,0.70412,0.70691,0.70926,0.71154,0.71348,0.71511,0.71637,0.71745,0.71843,0.71904,0.7194,0.71945,0.71944,0.7192,0.71874
-0.0069932,-0.007076,-0.0071157,-0.0070969,-0.0070493,-0.0069179,-0.0067548,-0.006536,-0.0061985,-0.0057649,-0.0051791,-0.0044466,-0.0034186,-0.002139,-0.000555,0.0013576,0.0036592,0.0062756,0.0092096,0.012376,0.01587,0.019524,0.023297,0.027267,0.031345,0.035441,0.039559,0.043635,0.047688,0.051611,0.055345,0.058954,0.06234,0.065461,0.068454,0.071296,0.074081,0.076815,0.079504,0.082239,0.084984,0.087633,0.090265,0.092773,0.095105,0.0972,0.099033,0.1006,0.10187,0.1028,0.10347,0.10381,0.10385,0.10357,0.10296,0.10201,0.10072,0.099173,0.097312,0.095261,0.093112,0.090883,0.088676,0.086482,0.084375,0.082409,0.080527,0.078784,0.077218,0.075782,0.074523,0.073394,0.072396,0.071546,0.070793,0.070129,0.069572,0.069072,0.068648,0.068257,0.067905,0.067565,0.067232,0.066914,0.066586,0.066237,0.06585,0.065434,0.06498,0.064497,0.063962,0.063418,0.062879,0.062335,0.061832,0.061371,0.060977,0.060655,0.06041,0.060256,0.060195,0.06024,0.06041,0.060696,0.06112,0.061675,0.062408,0.063287,0.06433,0.065564,0.066936,0.068542,0.070338,0.072279,0.074501,0.076873,0.079439,0.082195,0.085051,0.088134,0.091306,0.094522,0.097915,0.1013,0.10474,0.1082,0.11156,0.11502,0.11838,0.12156,0.1247,0.12766,0.13055,0.13331,0.13593,0.13859,0.14116,0.14369,0.14629,0.14896,0.15188,0.15511,0.15868,0.1628,0.16733,0.17235,0.1779,0.18377,0.19045,0.1975,0.20507,0.21326,0.22182,0.23105,0.2406,0.25018,0.26021,0.27015,0.27999,0.28974,0.29905,0.30829,0.31699,0.32499,0.33262,0.33948,0.34579,0.35138,0.35621,0.36053,0.36418,0.36728,0.36995,0.37218,0.37409,0.37572,0.37708,0.37827,0.37922,0.38005,0.38072,0.38123,0.38159,0.38181,0.38184,0.38171,0.38143,0.38099,0.38042,0.37973,0.37894,0.37807,0.37714,0.37611,0.37502,0.3739,0.3727,0.37139,0.37006,0.36867,0.36723,0.36577,0.36432,0.36288,0.36149,0.36008,0.35873,0.35744,0.35616,0.35493,0.35375,0.35262,0.35162,0.35064,0.34972,0.34888,0.34812,0.34743,0.34678,0.34617,0.34564,0.34516,0.3447,0.3443,0.34388,0.3435,0.34315,0.34282,0.34249,0.34219,0.34188,0.34156,0.34118,0.34078,0.34032,0.33981,0.33921,0.33852,0.33774,0.33685,0.33587,0.33475,0.3335,0.33215,0.33066,0.32907,0.32733,0.32547,0.32353,0.32149,0.31941,0.31724,0.31502,0.31282,0.31056,0.30833,0.30608,0.30382,0.30165,0.29946,0.29731,0.29519,0.29308,0.29106,0.28904,0.2871,0.28517,0.28329,0.28149,0.27972,0.27803,0.27637,0.27479,0.27334,0.27195,0.27067,0.26952,0.26849,0.26762,0.26692,0.26633,0.26587,0.26554,0.26538,0.26539,0.26564,0.26623,0.26713,0.26843,0.27014,0.27223,0.27485,0.27784,0.28113,0.28467,0.28821,0.29178,0.29512,0.29814,0.30083,0.30308,0.30496,0.30641,0.30749,0.30827,0.30885,0.30937,0.30987,0.31037,0.31092,0.31147,0.312,0.31248,0.31288,0.31315,0.31333,0.31344,0.31358,0.3138,0.31419,0.31478,0.31553,0.31639,0.31731,0.3182,0.31896,0.31962,0.32014,0.32058,0.32092,0.32118,0.32138,0.32151,0.32157,0.32162,0.32165,0.32167,0.32158,0.32135,0.32094,0.32029,0.31944,0.31838,0.31713,0.31576,0.31423,0.31266,0.31101,0.30932,0.30766,0.30597,0.30437,0.30281,0.30138,0.30005,0.29878,0.29763,0.29651,0.29545,0.29437,0.29326,0.29212,0.29087,0.28958,0.28822,0.28676,0.2853,0.28371,0.28213,0.2805,0.27892,0.27743,0.27606,0.2749,0.27394,0.27322,0.27279,0.27268,0.27289,0.27343,0.27432,0.27561,0.27724,0.27933,0.2819,0.28493,0.28873,0.29307,0.29816,0.304,0.31066,0.31833,0.32698,0.33691,0.3478,0.35987,0.37291,0.38666,0.40125,0.41618,0.4315,0.4466,0.46129,0.47544,0.48873,0.5013,0.51278,0.52338,0.53297,0.54152,0.54918,0.55581,0.56149,0.56606,0.56955,0.57187,0.57302,0.57314,0.57226,0.57047,0.56797,0.56487,0.56136,0.55756,0.55354,0.54939,0.54513,0.54089,0.53667,0.53249,0.52837,0.52429,0.52026,0.51624,0.51226,0.50831,0.50439,0.50049,0.49659,0.49268,0.48882,0.48499,0.48123,0.47754,0.47403,0.47066,0.46746,0.46448,0.46174,0.45926,0.45708,0.45528,0.45382,0.45278,0.45215,0.45186,0.45198,0.45253,0.45346,0.45481,0.45656,0.45872,0.46126,0.46421,0.46755,0.47112,0.47486,0.47888,0.48297,0.4872,0.49152,0.4959,0.50034,0.50467,0.509,0.51316,0.51717,0.52106,0.52475,0.52824,0.53152,0.53463,0.5375,0.54025,0.5428,0.54527,0.54761,0.54981,0.5519,0.55387,0.55577,0.55748,0.5591,0.56052,0.56187,0.5631,0.56415,0.56507,0.56588,0.56654,0.56707,0.56747,0.56772,0.56782,0.56779,0.56762,0.56728,0.56679,0.56617,0.56547,0.56457,0.56352,0.56232,0.561,0.55952,0.55793,0.55623,0.55448,0.55266,0.55079,0.54896,0.54699,0.54503,0.54286,0.54075,0.53846,0.53626,0.53401,0.53173,0.5295,0.52725,0.52508,0.52287,0.52079,0.51855,0.51648,0.51422,0.51201,0.5097,0.50738,0.50504,0.50258,0.50018,0.4977,0.49529,0.49285,0.49056,0.48827,0.48616,0.48398,0.48188,0.47984,0.47787,0.47596,0.47411,0.47235,0.47071,0.46917,0.46777,0.46653,0.46547,0.46459,0.46398,0.4637,0.46377,0.46416,0.46504,0.46637,0.46823,0.4706,0.47363,0.47716,0.48126,0.48589,0.49096,0.49655,0.50239,0.50863,0.51492,0.52144,0.52775,0.53426,0.54049,0.5467,0.55278,0.55884,0.56476,0.57082,0.5766,0.58203,0.58667,0.59028,0.59279,0.59422,0.59471,0.59473,0.59462,0.59469,0.59541,0.59671,0.59867,0.60108,0.60359,0.60602,0.60807,0.60942,0.61021,0.61043,0.61031,0.60993,0.60943,0.60872,0.608,0.6073,0.60643,0.60563,0.60484,0.60419,0.60361,0.60327,0.60298,0.60278,0.6024,0.6018,0.60081,0.59957,0.59813,0.59671,0.59553,0.59459,0.59393,0.59356,0.59336,0.59322,0.59311,0.59303,0.59291,0.59275,0.59254,0.59241,0.59218,0.5921,0.5921,0.5923,0.5928,0.59348,0.59444,0.59567,0.59714,0.59897,0.60105,0.60334,0.606,0.60898,0.6121,0.6154,0.61879,0.62233,0.62579,0.62932,0.63273,0.63628,0.63989,0.64357,0.64714,0.65094,0.65477,0.65858,0.6624,0.66642,0.67039,0.67448,0.67847,0.68249,0.68642,0.69013,0.69401,0.6974,0.70098,0.7045,0.708,0.71123,0.71451,0.71767,0.72087,0.72388,0.7267,0.72915,0.73148,0.73325,0.73492,0.73614,0.73723,0.73795,0.73853,0.73903,0.73938,0.73918,0.73885,0.73817
-0.00864,-0.0087151,-0.008755,-0.0087261,-0.0086778,-0.0085472,-0.0083787,-0.0081376,-0.007804,-0.0073514,-0.0067539,-0.0059922,-0.0049551,-0.0036557,-0.0020493,-0.0001138,0.0022188,0.0048571,0.0078156,0.011013,0.014532,0.018204,0.021998,0.025989,0.030077,0.034181,0.038303,0.042383,0.046435,0.050358,0.054085,0.05771,0.061102,0.064212,0.067184,0.070024,0.072794,0.075508,0.078177,0.080884,0.0836,0.086217,0.08881,0.091288,0.093587,0.09564,0.097441,0.098968,0.1002,0.1011,0.10174,0.10207,0.10209,0.10181,0.10119,0.10024,0.098966,0.097413,0.095558,0.093514,0.091369,0.089144,0.086935,0.084747,0.08265,0.080691,0.078816,0.077088,0.075543,0.074111,0.072856,0.071733,0.070747,0.069897,0.069146,0.068486,0.067925,0.067421,0.066998,0.066601,0.06625,0.065921,0.065594,0.065281,0.064963,0.064622,0.064243,0.063843,0.0634,0.062929,0.062408,0.061871,0.061344,0.06081,0.060324,0.05987,0.059488,0.05918,0.058946,0.058804,0.058759,0.058819,0.059001,0.059306,0.059742,0.060317,0.061061,0.061951,0.063005,0.064252,0.065635,0.067248,0.069055,0.071003,0.07323,0.075602,0.078161,0.080919,0.08377,0.086852,0.090016,0.093227,0.096604,0.099964,0.10339,0.10683,0.11015,0.11359,0.11691,0.12006,0.12319,0.12612,0.12899,0.13175,0.13435,0.13701,0.13956,0.14209,0.14468,0.14732,0.15026,0.15349,0.15704,0.16112,0.16563,0.1706,0.17609,0.18187,0.18843,0.19539,0.20281,0.21082,0.21925,0.22822,0.23754,0.24688,0.25663,0.26629,0.27584,0.28527,0.29428,0.3032,0.31162,0.31938,0.3268,0.33343,0.33959,0.34499,0.3497,0.35387,0.35741,0.3604,0.36297,0.36512,0.36697,0.36855,0.36985,0.37101,0.37195,0.37276,0.3734,0.37389,0.37426,0.37447,0.37452,0.3744,0.37411,0.37369,0.37314,0.37246,0.3717,0.37085,0.36994,0.36897,0.36795,0.36688,0.36575,0.36453,0.36329,0.36202,0.36067,0.35929,0.35789,0.35647,0.35507,0.35364,0.35223,0.35089,0.34956,0.34826,0.34702,0.34581,0.34472,0.34368,0.34272,0.34184,0.34102,0.34031,0.33964,0.33902,0.33848,0.33798,0.33751,0.33711,0.3367,0.33632,0.33595,0.33561,0.33529,0.33497,0.33467,0.33435,0.334,0.33362,0.33318,0.33269,0.33211,0.33143,0.33067,0.32979,0.32883,0.32773,0.32651,0.32519,0.32373,0.32219,0.3205,0.31869,0.31679,0.31481,0.31278,0.31067,0.30852,0.30638,0.30421,0.30205,0.29987,0.29769,0.29558,0.29346,0.29139,0.28933,0.28729,0.28534,0.28338,0.28149,0.27964,0.27782,0.27607,0.27436,0.27273,0.27113,0.2696,0.2682,0.26684,0.26561,0.26449,0.26351,0.26269,0.26202,0.26148,0.26108,0.26079,0.26067,0.26072,0.26101,0.26162,0.26256,0.26387,0.26557,0.26765,0.27023,0.27316,0.27638,0.27986,0.28335,0.28684,0.29011,0.29307,0.29573,0.29799,0.29987,0.30135,0.30244,0.30326,0.30388,0.30445,0.30497,0.30551,0.30607,0.30661,0.30717,0.30765,0.30801,0.30825,0.30835,0.3084,0.30844,0.30857,0.30887,0.30938,0.31004,0.31083,0.31168,0.31253,0.31327,0.3139,0.31443,0.31486,0.3152,0.31545,0.31561,0.31571,0.31574,0.31573,0.3157,0.31564,0.3155,0.31523,0.31479,0.31413,0.31329,0.31223,0.31102,0.30968,0.30819,0.30663,0.30503,0.3034,0.30178,0.30015,0.2986,0.2971,0.29569,0.29438,0.29314,0.29201,0.29091,0.28987,0.28883,0.28773,0.28661,0.28537,0.28412,0.28278,0.28138,0.27995,0.2784,0.27686,0.27527,0.27375,0.27229,0.27097,0.26983,0.26889,0.26821,0.26779,0.26771,0.26791,0.26844,0.26932,0.27058,0.27216,0.27421,0.27673,0.27972,0.28345,0.28772,0.2927,0.2984,0.30492,0.31241,0.32087,0.33058,0.34121,0.35301,0.36572,0.37913,0.39341,0.40799,0.42295,0.43779,0.45226,0.46615,0.47927,0.49168,0.50303,0.51357,0.52311,0.53165,0.53933,0.54599,0.55163,0.55615,0.55965,0.56195,0.56313,0.56327,0.5624,0.56061,0.55813,0.55508,0.55161,0.54784,0.54385,0.53971,0.53546,0.53122,0.52699,0.52284,0.51873,0.51468,0.51067,0.5067,0.50277,0.49885,0.49497,0.49111,0.48726,0.4834,0.47955,0.47577,0.47203,0.4684,0.46493,0.46157,0.45838,0.45539,0.45267,0.45021,0.44802,0.4462,0.44474,0.44367,0.44294,0.44264,0.44271,0.44317,0.44403,0.44531,0.44696,0.449,0.45141,0.45422,0.45742,0.46087,0.46449,0.46838,0.47239,0.47649,0.48073,0.48505,0.4894,0.49368,0.49794,0.50198,0.50593,0.5097,0.51328,0.51668,0.51979,0.52281,0.52563,0.52837,0.53087,0.53328,0.5355,0.5376,0.53962,0.54149,0.54326,0.54494,0.54655,0.54794,0.54925,0.5504,0.55138,0.5523,0.55307,0.55367,0.55414,0.5545,0.55472,0.5548,0.55474,0.55455,0.5542,0.55376,0.55317,0.55242,0.55144,0.55037,0.54912,0.54779,0.5463,0.54469,0.54302,0.54122,0.53945,0.53762,0.53576,0.53382,0.53185,0.52971,0.52755,0.52535,0.52316,0.52091,0.5187,0.51647,0.51423,0.51211,0.50994,0.50793,0.50575,0.50366,0.50145,0.49931,0.49706,0.49478,0.49245,0.49007,0.48771,0.48526,0.4829,0.48047,0.47821,0.47593,0.47381,0.47167,0.46964,0.46763,0.46568,0.46379,0.46199,0.46025,0.45864,0.45715,0.45577,0.45458,0.45354,0.45266,0.45211,0.4518,0.45186,0.4523,0.45315,0.45444,0.45626,0.45858,0.4615,0.46498,0.469,0.47353,0.47847,0.484,0.4897,0.49578,0.50191,0.50833,0.51451,0.52085,0.5269,0.53302,0.53897,0.54503,0.55097,0.55694,0.56261,0.568,0.57257,0.57615,0.57864,0.58013,0.58065,0.5807,0.5807,0.581,0.58186,0.58327,0.58529,0.58771,0.59034,0.59277,0.59481,0.59613,0.59689,0.59689,0.59661,0.59603,0.5954,0.59469,0.59394,0.59316,0.59235,0.5915,0.59071,0.58999,0.5895,0.58918,0.58903,0.58879,0.5884,0.58784,0.58686,0.58562,0.58408,0.58266,0.58136,0.58039,0.5797,0.57927,0.57901,0.57893,0.57888,0.57884,0.57867,0.5784,0.57817,0.57794,0.57769,0.57756,0.57759,0.57781,0.5782,0.57881,0.57978,0.58095,0.58246,0.58424,0.5863,0.58869,0.5913,0.59414,0.59712,0.60037,0.60372,0.60709,0.61045,0.61399,0.61743,0.62093,0.62447,0.62802,0.63162,0.63542,0.63916,0.64298,0.64689,0.65088,0.65486,0.65884,0.66279,0.66672,0.67068,0.67449,0.67819,0.68171,0.68539,0.6889,0.69232,0.69559,0.69886,0.70209,0.70517,0.70819,0.71091,0.71336,0.71548,0.71747,0.71913,0.72036,0.72122,0.72197,0.72269,0.72322,0.72329,0.72311,0.72284,0.72242
-0.0066768,-0.0067647,-0.0068133,-0.0067866,-0.0067437,-0.0066199,-0.0064388,-0.0062046,-0.0058641,-0.0054142,-0.0048063,-0.004045,-0.0029925,-0.0016803,-4.67e-05,0.0019107,0.0042683,0.0069487,0.009947,0.013178,0.016728,0.020451,0.024295,0.028333,0.032483,0.036636,0.040814,0.044938,0.049036,0.053,0.056772,0.060422,0.06384,0.066981,0.069984,0.07285,0.075658,0.078407,0.081112,0.083871,0.086636,0.089303,0.091954,0.094485,0.096846,0.098957,0.10081,0.10239,0.10368,0.10462,0.10529,0.10564,0.10568,0.1054,0.1048,0.10384,0.10256,0.101,0.099134,0.097073,0.094911,0.092668,0.090442,0.088236,0.08612,0.084142,0.082253,0.080505,0.078946,0.077496,0.076233,0.075099,0.074111,0.073263,0.072515,0.071857,0.071295,0.070788,0.070367,0.06997,0.069618,0.069285,0.068954,0.068635,0.068305,0.067956,0.067572,0.067155,0.066705,0.066221,0.065693,0.065153,0.064622,0.064093,0.063601,0.063137,0.062747,0.062434,0.0622,0.062057,0.062009,0.062071,0.06225,0.062564,0.063008,0.063587,0.064348,0.065248,0.066317,0.067583,0.068982,0.07062,0.072448,0.074428,0.076682,0.07908,0.081674,0.084466,0.087349,0.090478,0.093675,0.09693,0.10036,0.10376,0.10723,0.11072,0.11411,0.11759,0.12098,0.12417,0.12734,0.13031,0.13323,0.13602,0.13866,0.14134,0.14394,0.14648,0.1491,0.15179,0.15477,0.15806,0.16169,0.16588,0.1705,0.17563,0.18128,0.18724,0.19404,0.20125,0.20893,0.21724,0.22596,0.23534,0.24504,0.25477,0.26496,0.27506,0.28508,0.295,0.30448,0.31384,0.32269,0.33086,0.33861,0.34561,0.35209,0.35778,0.36274,0.36713,0.37088,0.37404,0.37674,0.379,0.38095,0.3826,0.38398,0.38518,0.38614,0.38696,0.38762,0.38814,0.38849,0.38871,0.38873,0.38858,0.38829,0.38784,0.38724,0.3865,0.3857,0.38479,0.38382,0.38274,0.38164,0.38048,0.37923,0.37791,0.37655,0.37515,0.37371,0.37222,0.37078,0.3693,0.36787,0.36642,0.36499,0.36362,0.36225,0.36095,0.35969,0.35848,0.35741,0.35639,0.35543,0.35457,0.35375,0.35305,0.35239,0.35178,0.35124,0.35076,0.3503,0.34991,0.34949,0.34913,0.34877,0.34842,0.3481,0.3478,0.3475,0.34718,0.34683,0.34642,0.34597,0.34547,0.34488,0.34417,0.34337,0.34247,0.34147,0.34032,0.33905,0.33769,0.33618,0.33458,0.33282,0.33094,0.32898,0.32693,0.32484,0.32265,0.3204,0.31819,0.31591,0.31367,0.3114,0.30912,0.30692,0.30471,0.30255,0.30041,0.29829,0.29625,0.29422,0.29225,0.2903,0.2884,0.28658,0.28479,0.28308,0.2814,0.27979,0.27831,0.27689,0.2756,0.27442,0.27337,0.2725,0.27177,0.27116,0.2707,0.27034,0.27015,0.27013,0.27037,0.27094,0.27183,0.27312,0.27484,0.27694,0.27957,0.28257,0.28589,0.28948,0.29306,0.29667,0.30005,0.30311,0.30587,0.30821,0.31015,0.31166,0.31279,0.3136,0.31421,0.31475,0.31525,0.31577,0.31631,0.31684,0.31738,0.31784,0.31823,0.3185,0.31865,0.31874,0.31885,0.31905,0.31944,0.32002,0.32078,0.32166,0.3226,0.3235,0.32429,0.32498,0.32553,0.32601,0.32639,0.32667,0.32686,0.32697,0.32703,0.32705,0.32706,0.32704,0.32694,0.3267,0.32626,0.32558,0.32472,0.32364,0.32238,0.321,0.31946,0.31784,0.31618,0.31446,0.31278,0.31106,0.30943,0.30785,0.30638,0.30501,0.30371,0.30253,0.30138,0.3003,0.2992,0.29807,0.29691,0.29565,0.29434,0.29295,0.29146,0.28995,0.28835,0.28675,0.28512,0.28354,0.28203,0.28065,0.27949,0.27854,0.27783,0.27739,0.27731,0.27754,0.2781,0.27901,0.28032,0.28197,0.2841,0.28672,0.28985,0.29374,0.29817,0.30336,0.3093,0.31611,0.32391,0.33269,0.3428,0.35389,0.3662,0.37953,0.39358,0.40851,0.42384,0.43955,0.45506,0.47027,0.48486,0.49857,0.51154,0.52343,0.53444,0.54437,0.55328,0.5613,0.56825,0.57417,0.57892,0.58257,0.58501,0.58628,0.58647,0.58561,0.58382,0.58127,0.57814,0.57458,0.57066,0.56651,0.56225,0.55783,0.55346,0.54906,0.54472,0.54037,0.53612,0.53187,0.52771,0.52358,0.5195,0.51542,0.51137,0.50733,0.50333,0.4993,0.49532,0.49142,0.4876,0.48392,0.4804,0.47709,0.474,0.47116,0.4686,0.46633,0.46449,0.46298,0.46187,0.46113,0.4608,0.4609,0.46139,0.46229,0.46364,0.46544,0.46762,0.47018,0.47318,0.47658,0.4802,0.48405,0.48811,0.49227,0.4966,0.501,0.5055,0.51006,0.51448,0.51892,0.52316,0.52731,0.53129,0.53504,0.53869,0.542,0.54519,0.54813,0.551,0.55369,0.55623,0.55866,0.56092,0.56305,0.56507,0.56703,0.56875,0.57043,0.57183,0.57317,0.5744,0.57546,0.57638,0.57718,0.57786,0.57837,0.57871,0.57891,0.57893,0.57883,0.57852,0.57813,0.5776,0.57691,0.57611,0.57515,0.57405,0.57275,0.57131,0.56973,0.56804,0.56622,0.56433,0.56241,0.56045,0.55852,0.55647,0.55438,0.55211,0.54988,0.54753,0.54518,0.54282,0.54039,0.53804,0.53569,0.53339,0.53111,0.52895,0.52665,0.52454,0.52223,0.51994,0.51752,0.51509,0.51262,0.51007,0.50765,0.5051,0.50262,0.50012,0.49772,0.49533,0.49313,0.49082,0.48862,0.48647,0.48442,0.48247,0.48055,0.47878,0.47708,0.47549,0.47406,0.47286,0.47174,0.47086,0.47021,0.46987,0.46994,0.47039,0.47124,0.47262,0.47458,0.47704,0.48011,0.4837,0.48786,0.49263,0.49787,0.50364,0.50968,0.51611,0.52261,0.52942,0.53598,0.54266,0.54904,0.55543,0.56162,0.56798,0.57415,0.58039,0.58644,0.59206,0.59692,0.60071,0.60336,0.60484,0.60541,0.60547,0.60548,0.60576,0.6066,0.60807,0.61013,0.61265,0.61542,0.61794,0.62003,0.62134,0.62204,0.62221,0.62201,0.62155,0.62096,0.62032,0.61962,0.61881,0.61793,0.61699,0.61618,0.61544,0.61484,0.61456,0.6144,0.61417,0.61393,0.61325,0.61224,0.61087,0.60929,0.60778,0.60651,0.60561,0.60494,0.60455,0.6043,0.60425,0.60425,0.60419,0.60398,0.60375,0.6036,0.60344,0.60325,0.60312,0.60324,0.60349,0.60391,0.60472,0.60569,0.60691,0.60844,0.61034,0.61256,0.61504,0.6178,0.62084,0.62399,0.62747,0.63097,0.63446,0.63801,0.6418,0.64541,0.64907,0.65272,0.65645,0.66035,0.66426,0.66819,0.67217,0.67627,0.68045,0.68479,0.68891,0.69303,0.69711,0.70115,0.70497,0.70891,0.71254,0.71629,0.71983,0.7234,0.72666,0.73018,0.73361,0.73707,0.73997,0.74277,0.74511,0.74742,0.74942,0.75121,0.75262,0.75377,0.75467,0.75525,0.7556,0.75574,0.75555,0.75522,0.75468
-0.009014,-0.0090901,-0.0091234,-0.0090975,-0.0090456,-0.0089145,-0.0087374,-0.0085121,-0.0081639,-0.0077257,-0.0071286,-0.0063835,-0.0053591,-0.0040875,-0.002497,-0.0006071,0.0016739,0.0042567,0.0071547,0.010276,0.013714,0.017304,0.021011,0.024909,0.028908,0.032921,0.036963,0.040964,0.044952,0.048807,0.05248,0.056036,0.059372,0.062428,0.065354,0.068132,0.070845,0.073511,0.076132,0.078808,0.081492,0.084082,0.086647,0.089094,0.091363,0.09339,0.095168,0.096681,0.097894,0.098783,0.099418,0.099748,0.099782,0.099508,0.098913,0.097983,0.096733,0.095205,0.093371,0.091342,0.089211,0.086994,0.084801,0.082623,0.080531,0.07858,0.076721,0.075005,0.07347,0.072045,0.070801,0.069687,0.06871,0.067866,0.067118,0.066459,0.065897,0.065397,0.064978,0.064589,0.064241,0.063909,0.06359,0.063282,0.062963,0.062629,0.062265,0.061869,0.061437,0.060977,0.060466,0.059949,0.059424,0.058902,0.05842,0.057969,0.057582,0.057274,0.057036,0.056889,0.056836,0.056889,0.057059,0.057347,0.057773,0.058329,0.059057,0.059922,0.060943,0.062162,0.063507,0.065074,0.06683,0.068734,0.070899,0.073212,0.075713,0.078408,0.081193,0.084208,0.087307,0.090463,0.093785,0.097089,0.10047,0.10386,0.10716,0.11055,0.11385,0.11695,0.12003,0.12291,0.12575,0.12845,0.13102,0.13362,0.13613,0.1386,0.14114,0.14374,0.14664,0.14984,0.15337,0.15743,0.16191,0.16686,0.1723,0.17804,0.18457,0.19149,0.1989,0.20694,0.21534,0.22432,0.23368,0.24308,0.25292,0.26266,0.27232,0.28188,0.29101,0.30006,0.30863,0.3165,0.32404,0.33081,0.33707,0.34257,0.34737,0.35163,0.35524,0.35829,0.36088,0.36305,0.36493,0.36653,0.36785,0.369,0.36995,0.37075,0.37138,0.37189,0.37225,0.37246,0.37251,0.37238,0.37209,0.37165,0.37108,0.37039,0.3696,0.36876,0.36784,0.36685,0.36578,0.36466,0.36348,0.36226,0.36096,0.35963,0.35824,0.35682,0.35539,0.354,0.35262,0.35121,0.34982,0.34848,0.34717,0.34588,0.34464,0.34348,0.3424,0.34137,0.34043,0.33956,0.33876,0.33807,0.33738,0.33677,0.33624,0.33574,0.33529,0.33486,0.33443,0.33402,0.33365,0.33331,0.33298,0.33265,0.33234,0.33202,0.33167,0.33128,0.33083,0.33032,0.32974,0.32905,0.32828,0.32738,0.3264,0.32527,0.32403,0.32268,0.32121,0.31964,0.31792,0.3161,0.31419,0.31219,0.31014,0.30801,0.30581,0.30364,0.30142,0.29923,0.29703,0.29481,0.29268,0.29055,0.28847,0.28639,0.28435,0.28237,0.2804,0.27849,0.27661,0.27476,0.273,0.27126,0.2696,0.26799,0.26644,0.26502,0.26367,0.26245,0.26132,0.26034,0.25953,0.25887,0.25835,0.25795,0.25768,0.25757,0.25764,0.25794,0.25859,0.25955,0.26088,0.26263,0.26476,0.26742,0.27041,0.27371,0.27726,0.2808,0.28434,0.28767,0.29071,0.29342,0.29575,0.29771,0.29924,0.30039,0.30126,0.30192,0.30251,0.30307,0.30364,0.30424,0.30482,0.30538,0.30585,0.30622,0.30645,0.30653,0.30653,0.30654,0.30664,0.30691,0.30739,0.30806,0.30884,0.30968,0.31052,0.31126,0.31189,0.31241,0.31285,0.31319,0.31343,0.31358,0.31366,0.31366,0.31362,0.31357,0.3135,0.31334,0.31306,0.31258,0.3119,0.31103,0.30998,0.30873,0.30739,0.3059,0.30434,0.30274,0.3011,0.29947,0.29781,0.29624,0.29471,0.29328,0.29197,0.2907,0.28955,0.28843,0.28738,0.28631,0.28522,0.28411,0.28289,0.28162,0.28026,0.27885,0.2774,0.27586,0.2743,0.27272,0.27119,0.26971,0.26838,0.26726,0.26632,0.26563,0.26522,0.26515,0.26535,0.26588,0.26676,0.26803,0.26963,0.2717,0.27425,0.27729,0.28107,0.28539,0.29043,0.29623,0.30284,0.31043,0.31901,0.32893,0.3398,0.35186,0.3649,0.37866,0.39331,0.40833,0.42375,0.43903,0.45393,0.46828,0.48177,0.4945,0.50619,0.51705,0.52684,0.53565,0.54349,0.55033,0.55615,0.56082,0.56439,0.56675,0.56798,0.5681,0.56718,0.56535,0.56282,0.55972,0.55615,0.55228,0.54814,0.54391,0.53957,0.53522,0.5309,0.52665,0.52243,0.51825,0.51412,0.51006,0.50606,0.50206,0.49807,0.49408,0.49014,0.48621,0.48229,0.47842,0.47456,0.47084,0.46725,0.46378,0.4605,0.45742,0.45463,0.45211,0.44986,0.44804,0.44658,0.44546,0.44473,0.44442,0.44449,0.44498,0.44588,0.4472,0.44895,0.45106,0.4536,0.45655,0.45989,0.46348,0.46725,0.47127,0.4754,0.47968,0.48406,0.48851,0.49304,0.49745,0.50186,0.50605,0.51017,0.51406,0.51774,0.52124,0.52451,0.52761,0.53044,0.53324,0.53576,0.53818,0.54047,0.54263,0.54475,0.54665,0.54847,0.55014,0.55169,0.55307,0.55438,0.55553,0.55658,0.5575,0.55827,0.55892,0.55944,0.55983,0.55999,0.56002,0.5599,0.55963,0.5593,0.55886,0.55822,0.55748,0.55655,0.55551,0.55429,0.55295,0.5514,0.54974,0.54802,0.54624,0.54442,0.5426,0.54081,0.53882,0.53687,0.53471,0.53261,0.53035,0.52809,0.52583,0.52351,0.52127,0.51905,0.51694,0.51475,0.51267,0.51048,0.50844,0.50623,0.50397,0.5016,0.49925,0.49682,0.49438,0.49192,0.48943,0.48698,0.48449,0.48218,0.47981,0.47758,0.47529,0.47312,0.47099,0.46892,0.46694,0.46508,0.46325,0.4616,0.46005,0.45869,0.45743,0.45635,0.45548,0.45488,0.45458,0.45468,0.45519,0.45614,0.45751,0.45941,0.4619,0.46491,0.4685,0.47268,0.47746,0.48267,0.48836,0.49443,0.50079,0.50719,0.51382,0.52035,0.52701,0.53326,0.53958,0.54577,0.55198,0.55819,0.56436,0.57028,0.57581,0.5805,0.5843,0.58689,0.58838,0.58901,0.58911,0.58921,0.5896,0.59045,0.59206,0.59424,0.59684,0.5996,0.60213,0.60418,0.60533,0.60587,0.60595,0.60562,0.60502,0.60436,0.60365,0.60294,0.60218,0.60132,0.60041,0.59965,0.599,0.59851,0.59827,0.59805,0.59803,0.59769,0.59717,0.59618,0.59479,0.59324,0.59165,0.59034,0.58927,0.58856,0.58817,0.58791,0.58775,0.58772,0.58757,0.58736,0.58717,0.58694,0.58673,0.58656,0.58645,0.58654,0.58681,0.58724,0.58792,0.58882,0.58998,0.59148,0.59331,0.59551,0.59799,0.60071,0.6037,0.60685,0.61009,0.61354,0.61698,0.62041,0.62407,0.62768,0.63124,0.63495,0.63865,0.64242,0.64634,0.65006,0.654,0.65794,0.66208,0.66619,0.6703,0.67441,0.6785,0.68251,0.68633,0.69015,0.6938,0.69753,0.70109,0.70466,0.70818,0.71168,0.71492,0.7181,0.72097,0.72376,0.72625,0.72847,0.73059,0.73225,0.73364,0.73494,0.7358,0.7363,0.73655,0.73643,0.73621,0.73586,0.73543
