-0.022701,-0.022803,-0.02288,-0.022914,-0.022902,-0.022848,-0.022722,-0.022522,-0.022215,-0.021807,-0.02125,-0.020535,-0.019615,-0.01848,-0.017081,-0.015409,-0.013454,-0.011236,-0.0087045,-0.0059768,-0.0030191,0.0001548,0.0034779,0.0069463,0.010455,0.014024,0.017649,0.021164,0.024601,0.027994,0.031242,0.034346,0.03728,0.040052,0.04274,0.045279,0.047718,0.050146,0.052527,0.054888,0.057231,0.059521,0.061798,0.063937,0.065961,0.067827,0.069462,0.070846,0.072029,0.07291,0.073569,0.073918,0.074024,0.073828,0.073356,0.072594,0.071568,0.070271,0.068743,0.067055,0.065254,0.063342,0.06144,0.059553,0.057714,0.055975,0.054301,0.052784,0.05139,0.050105,0.048969,0.047952,0.047045,0.046273,0.04557,0.044979,0.044456,0.043987,0.043574,0.043203,0.042856,0.042535,0.042231,0.04192,0.041612,0.041276,0.040939,0.040561,0.040161,0.039741,0.039286,0.038827,0.038371,0.037919,0.037492,0.037113,0.036772,0.036498,0.036278,0.036155,0.03611,0.036161,0.036307,0.036569,0.036942,0.037432,0.038068,0.038835,0.039739,0.040805,0.042024,0.043425,0.044974,0.046681,0.048617,0.050679,0.052925,0.055313,0.057837,0.060519,0.063282,0.066119,0.069107,0.072111,0.075168,0.078234,0.081267,0.08434,0.087293,0.090159,0.092952,0.095594,0.098137,0.10054,0.10285,0.10516,0.10738,0.10963,0.11194,0.11438,0.11705,0.11996,0.12316,0.12682,0.13081,0.13528,0.14015,0.14544,0.15135,0.15768,0.16455,0.17194,0.17976,0.1881,0.1967,0.2055,0.21468,0.22378,0.23295,0.24195,0.2507,0.25932,0.26744,0.27511,0.28235,0.28891,0.29503,0.30036,0.30512,0.30932,0.3129,0.31598,0.31858,0.32077,0.32263,0.32419,0.32547,0.32655,0.32742,0.32816,0.32872,0.32914,0.32942,0.32953,0.32951,0.3293,0.32896,0.32844,0.3278,0.32705,0.32621,0.32531,0.32431,0.32327,0.32217,0.32103,0.31979,0.31854,0.31724,0.3159,0.31447,0.31312,0.31166,0.31022,0.30879,0.30733,0.30589,0.30448,0.30311,0.30178,0.30052,0.29929,0.29818,0.29708,0.29601,0.29508,0.29423,0.29347,0.29277,0.29214,0.29157,0.29108,0.2906,0.29018,0.28976,0.28939,0.28905,0.28873,0.28841,0.28809,0.28776,0.28744,0.28709,0.28671,0.28627,0.28577,0.28519,0.28454,0.28378,0.28294,0.28198,0.28093,0.27979,0.2785,0.27712,0.27561,0.274,0.27231,0.27048,0.2686,0.26663,0.26462,0.26258,0.26048,0.25838,0.25627,0.25417,0.2521,0.25,0.24796,0.24594,0.24394,0.24199,0.24005,0.23816,0.2363,0.23449,0.23272,0.23098,0.2293,0.22769,0.22613,0.22465,0.22322,0.22189,0.22065,0.21952,0.2185,0.21761,0.21685,0.21621,0.21569,0.21529,0.21502,0.2149,0.215,0.21535,0.21599,0.21701,0.21834,0.22009,0.2222,0.22467,0.22752,0.23056,0.23377,0.23692,0.23997,0.24285,0.2454,0.24767,0.24951,0.25098,0.25213,0.25295,0.25359,0.25409,0.25453,0.25495,0.25537,0.25579,0.2562,0.25655,0.25685,0.25704,0.25713,0.25718,0.25723,0.25737,0.25766,0.25814,0.25877,0.25954,0.26036,0.2612,0.26198,0.26267,0.26326,0.26375,0.26416,0.26448,0.26471,0.2649,0.26499,0.26505,0.26509,0.26509,0.26499,0.26478,0.2644,0.26384,0.26308,0.26216,0.26107,0.25981,0.25845,0.25697,0.25547,0.25393,0.25236,0.25084,0.24932,0.24787,0.24651,0.24523,0.24404,0.24294,0.24191,0.24093,0.23995,0.23894,0.23787,0.23674,0.23552,0.23425,0.23292,0.23154,0.23023,0.22876,0.22728,0.22579,0.22435,0.22303,0.22188,0.22095,0.22024,0.21984,0.21971,0.21988,0.22038,0.2212,0.22237,0.2239,0.22585,0.2282,0.23113,0.2345,0.23844,0.24295,0.24815,0.25418,0.26106,0.26914,0.27814,0.28834,0.29963,0.31186,0.32505,0.33889,0.35356,0.36833,0.38332,0.39799,0.41214,0.42577,0.43838,0.45032,0.46124,0.47125,0.4803,0.48832,0.49544,0.50133,0.50622,0.50999,0.51253,0.51393,0.5142,0.51348,0.51176,0.50923,0.50608,0.50246,0.49847,0.49425,0.48986,0.48542,0.4809,0.47642,0.47195,0.46753,0.46316,0.45884,0.45459,0.45035,0.4462,0.44203,0.43791,0.43384,0.42976,0.42578,0.42179,0.41795,0.41416,0.41051,0.40702,0.40371,0.40064,0.39776,0.39522,0.39296,0.39103,0.38945,0.38828,0.38748,0.38707,0.38702,0.38741,0.38821,0.3894,0.39098,0.39299,0.39539,0.39809,0.40117,0.40446,0.40808,0.41183,0.41578,0.41985,0.424,0.42822,0.43244,0.43672,0.4409,0.44508,0.44908,0.453,0.45671,0.46027,0.46365,0.46681,0.46992,0.47278,0.47558,0.47817,0.48068,0.483,0.48522,0.48728,0.48921,0.491,0.49263,0.49419,0.49554,0.49681,0.49791,0.49889,0.49972,0.50042,0.50098,0.50136,0.50161,0.50169,0.50162,0.50138,0.50099,0.50043,0.49973,0.49885,0.4978,0.49656,0.49515,0.49356,0.49181,0.48989,0.48794,0.48594,0.48396,0.48195,0.47992,0.47789,0.47578,0.47363,0.47135,0.46906,0.46668,0.46431,0.46191,0.45952,0.45713,0.45477,0.45241,0.45005,0.44768,0.44527,0.44285,0.4404,0.43793,0.43541,0.43296,0.43047,0.42807,0.42566,0.42335,0.42107,0.41885,0.41669,0.41458,0.41251,0.41043,0.40845,0.40647,0.40458,0.4027,0.40093,0.39925,0.39768,0.39623,0.39497,0.39384,0.39295,0.39236,0.39206,0.39213,0.39261,0.3935,0.3949,0.39674,0.39917,0.40207,0.40555,0.40951,0.41407,0.41903,0.42446,0.4302,0.43626,0.44246,0.44876,0.45504,0.46132,0.4675,0.47365,0.47981,0.48597,0.49222,0.49852,0.50472,0.51046,0.51556,0.51951,0.52228,0.52381,0.52428,0.52419,0.52395,0.52397,0.52453,0.52574,0.52757,0.52993,0.53249,0.53497,0.53702,0.53844,0.53929,0.53963,0.53957,0.5393,0.53892,0.53844,0.53783,0.53707,0.53621,0.53525,0.53435,0.53349,0.53279,0.53228,0.53189,0.53152,0.53101,0.5302,0.52904,0.52756,0.526,0.52449,0.52325,0.52241,0.5219,0.52168,0.52166,0.52168,0.52172,0.52175,0.52172,0.52158,0.52144,0.52118,0.52095,0.52079,0.52073,0.52085,0.52118,0.52181,0.52263,0.52389,0.52548,0.52743,0.52969,0.53238,0.5353,0.53847,0.54183,0.54533,0.54887,0.55254,0.55622,0.55989,0.56357,0.56715,0.57087,0.5745,0.57825,0.58207,0.58602,0.59003,0.59419,0.59847,0.60288,0.60716,0.61144,0.61561,0.6199,0.62382,0.6278,0.63157,0.63532,0.63889,0.64243,0.64585,0.64923,0.65238,0.65553,0.65856,0.66134,0.66391,0.66627,0.66839,0.67024,0.67174,0.67309,0.67412,0.67476,0.67515,0.67524,0.67508,0.67468,0.67406
-0.021921,-0.022055,-0.022161,-0.022221,-0.022226,-0.022188,-0.022073,-0.021879,-0.02158,-0.021183,-0.020628,-0.019925,-0.01901,-0.017867,-0.016484,-0.014816,-0.012866,-0.010647,-0.008116,-0.0053928,-0.0024375,0.0007504,0.0040841,0.0075609,0.011084,0.014662,0.0183,0.021825,0.025274,0.028679,0.031932,0.035045,0.037979,0.040761,0.043466,0.046004,0.048461,0.050907,0.053293,0.05567,0.058021,0.060327,0.062613,0.064766,0.066804,0.068681,0.070332,0.071729,0.072921,0.073802,0.074452,0.074801,0.0749,0.074693,0.07421,0.07343,0.072383,0.071072,0.069525,0.06782,0.065996,0.064067,0.062145,0.060244,0.058385,0.056627,0.05494,0.053408,0.051993,0.050693,0.049546,0.048516,0.047601,0.046824,0.046118,0.045521,0.044995,0.044518,0.044105,0.043727,0.043376,0.043043,0.042732,0.042418,0.042096,0.04176,0.04141,0.041024,0.040619,0.040196,0.039744,0.039278,0.038816,0.038363,0.037938,0.037553,0.037207,0.036933,0.036715,0.036594,0.036546,0.036602,0.036745,0.037014,0.037384,0.037883,0.03852,0.039291,0.040202,0.041271,0.042505,0.043916,0.045478,0.047199,0.049142,0.051219,0.053475,0.05588,0.058425,0.061134,0.063929,0.066794,0.069814,0.072856,0.075964,0.079072,0.082154,0.085271,0.088257,0.091146,0.093952,0.096598,0.099145,0.10155,0.10387,0.10618,0.10842,0.11069,0.11304,0.11554,0.11827,0.12124,0.12449,0.1282,0.13221,0.13673,0.14166,0.14699,0.15299,0.1594,0.16637,0.17386,0.18178,0.19023,0.19891,0.20782,0.21709,0.22628,0.23554,0.24463,0.25347,0.26216,0.27035,0.2781,0.2854,0.29203,0.29822,0.30359,0.30841,0.31265,0.31629,0.31941,0.32204,0.32427,0.32617,0.32775,0.32906,0.33017,0.33106,0.33182,0.33241,0.33285,0.33316,0.3333,0.33331,0.33312,0.33279,0.33229,0.33167,0.3309,0.33005,0.32912,0.3281,0.32703,0.32588,0.32468,0.32344,0.32213,0.3208,0.31943,0.31797,0.31664,0.31518,0.31376,0.31233,0.3109,0.30948,0.30809,0.30674,0.30544,0.30417,0.30297,0.30187,0.3008,0.29974,0.29882,0.29797,0.29721,0.2965,0.29588,0.2953,0.2948,0.29432,0.29388,0.29347,0.29308,0.29271,0.29237,0.29204,0.29172,0.29138,0.29104,0.29068,0.29028,0.28983,0.28931,0.2887,0.28804,0.28726,0.2864,0.28544,0.28436,0.28319,0.28187,0.28047,0.27893,0.2773,0.27558,0.27371,0.27179,0.2698,0.26775,0.26568,0.26354,0.26141,0.25927,0.25714,0.25503,0.25289,0.25081,0.24875,0.24672,0.24474,0.24276,0.24085,0.23896,0.23711,0.23532,0.23355,0.23185,0.2302,0.2286,0.22709,0.22563,0.22427,0.22299,0.22183,0.22079,0.21985,0.21904,0.21837,0.21781,0.21737,0.21706,0.21691,0.21698,0.21731,0.21793,0.21892,0.22024,0.22198,0.22408,0.22655,0.22941,0.23246,0.23568,0.23885,0.24192,0.2448,0.24732,0.24957,0.25136,0.25279,0.25389,0.25466,0.25525,0.25571,0.25611,0.25649,0.25688,0.25729,0.25771,0.25807,0.25839,0.25864,0.25881,0.25894,0.25908,0.25932,0.25968,0.26024,0.26094,0.26178,0.26266,0.26353,0.26433,0.26503,0.26563,0.26612,0.26654,0.26687,0.26712,0.26733,0.26747,0.26759,0.26767,0.26771,0.26766,0.26749,0.26715,0.2666,0.26584,0.26491,0.26381,0.26254,0.26116,0.25967,0.25813,0.25658,0.25499,0.25344,0.25192,0.25045,0.24908,0.24778,0.2466,0.24549,0.24447,0.24349,0.24252,0.24153,0.24047,0.23933,0.2381,0.23681,0.23546,0.23405,0.23272,0.23124,0.22972,0.22819,0.2267,0.22534,0.22414,0.22317,0.22246,0.22206,0.22195,0.22215,0.22269,0.22357,0.2248,0.22644,0.2285,0.23096,0.23396,0.2374,0.24138,0.24593,0.25121,0.25732,0.26429,0.2725,0.28165,0.29207,0.30353,0.31598,0.32936,0.34344,0.35828,0.37331,0.38846,0.40334,0.41767,0.43143,0.44418,0.45626,0.4673,0.47746,0.4866,0.49473,0.50194,0.50792,0.51287,0.51664,0.51926,0.52067,0.52099,0.52032,0.5186,0.51609,0.51294,0.50927,0.50525,0.501,0.49658,0.49212,0.48755,0.48304,0.47853,0.47406,0.46966,0.46529,0.46102,0.45669,0.4525,0.44827,0.44411,0.43999,0.43589,0.43187,0.42782,0.42393,0.42009,0.4164,0.41286,0.40951,0.40639,0.40349,0.4009,0.39859,0.39664,0.39502,0.39379,0.39296,0.39251,0.39246,0.39282,0.39358,0.39475,0.39632,0.39831,0.40067,0.40336,0.40642,0.40973,0.41332,0.41705,0.42098,0.42506,0.4292,0.43344,0.43767,0.44194,0.44612,0.45032,0.45434,0.45825,0.46202,0.4656,0.46901,0.47223,0.47531,0.47819,0.48101,0.48363,0.48614,0.48853,0.49076,0.49287,0.49481,0.49663,0.4983,0.49988,0.50125,0.5025,0.50363,0.50463,0.50546,0.50618,0.50674,0.50717,0.50744,0.50753,0.50746,0.50722,0.50686,0.5063,0.50559,0.50472,0.50367,0.50243,0.50104,0.49944,0.49769,0.49578,0.49383,0.49181,0.48977,0.48773,0.48568,0.48363,0.48149,0.47932,0.47704,0.47474,0.47233,0.46996,0.46753,0.46512,0.46272,0.46033,0.45792,0.45555,0.45315,0.45073,0.4483,0.44584,0.44333,0.44079,0.4383,0.43576,0.43334,0.43093,0.4286,0.42633,0.4241,0.42195,0.41984,0.41779,0.41574,0.41378,0.41182,0.40991,0.40804,0.40628,0.40457,0.40297,0.4015,0.40019,0.39901,0.39808,0.39743,0.39707,0.39712,0.39753,0.39841,0.39975,0.40156,0.40397,0.40684,0.41033,0.41428,0.41887,0.42384,0.42929,0.43507,0.44119,0.44744,0.45382,0.46016,0.46651,0.47274,0.47895,0.48516,0.49138,0.49772,0.50404,0.51033,0.51616,0.52132,0.52537,0.52815,0.52962,0.53009,0.52993,0.52963,0.52956,0.53002,0.53118,0.533,0.53529,0.53782,0.54026,0.54236,0.54388,0.54471,0.54508,0.54507,0.54483,0.54449,0.54401,0.5434,0.54265,0.54179,0.54082,0.5399,0.53905,0.53834,0.53777,0.53734,0.53692,0.53642,0.53559,0.5344,0.53296,0.5314,0.52992,0.52873,0.5279,0.52744,0.52725,0.52725,0.52736,0.52742,0.52749,0.52745,0.52737,0.52723,0.52702,0.5268,0.52666,0.52667,0.52684,0.52724,0.52787,0.52875,0.53001,0.53167,0.5336,0.5359,0.53862,0.54165,0.54488,0.54833,0.5519,0.55557,0.55924,0.563,0.56668,0.57044,0.57414,0.57779,0.58149,0.5853,0.58912,0.59307,0.59716,0.60138,0.60561,0.60994,0.61422,0.61864,0.62289,0.62716,0.63117,0.63511,0.63893,0.64263,0.64621,0.6498,0.65329,0.65665,0.65986,0.66303,0.6661,0.66889,0.67152,0.6738,0.67594,0.67775,0.67933,0.6806,0.68171,0.6825,0.68285,0.68312,0.68294,0.68265,0.68216
-0.02086,-0.020993,-0.021107,-0.021176,-0.021187,-0.021159,-0.021076,-0.02091,-0.020637,-0.020264,-0.019743,-0.019093,-0.018232,-0.017154,-0.015834,-0.014253,-0.012412,-0.010309,-0.0079102,-0.0053211,-0.0025323,0.0004775,0.0036188,0.0069013,0.01022,0.013587,0.017015,0.020339,0.023601,0.026827,0.029926,0.032904,0.035729,0.038419,0.041047,0.043517,0.045915,0.048288,0.050606,0.052903,0.055173,0.057378,0.059566,0.061609,0.063534,0.065301,0.066846,0.068141,0.06923,0.070026,0.0706,0.070876,0.070918,0.070675,0.070171,0.069397,0.068382,0.067126,0.065653,0.064048,0.062348,0.060544,0.058752,0.056978,0.055244,0.053608,0.052029,0.050598,0.04928,0.048063,0.046991,0.046025,0.045168,0.044439,0.043782,0.043228,0.042737,0.042297,0.041917,0.041576,0.041253,0.040958,0.040674,0.040386,0.040095,0.039786,0.039467,0.039111,0.038731,0.038327,0.037899,0.037449,0.036998,0.036552,0.03613,0.035751,0.035405,0.035125,0.0349,0.034764,0.034707,0.034738,0.034856,0.035098,0.035436,0.035892,0.036484,0.0372,0.038055,0.039058,0.040215,0.041539,0.043005,0.044629,0.046468,0.048434,0.050576,0.052867,0.055289,0.057872,0.060549,0.063292,0.066194,0.069117,0.072102,0.075095,0.078061,0.081059,0.083929,0.086708,0.0894,0.091933,0.094363,0.09666,0.098861,0.10104,0.10316,0.10528,0.10748,0.1098,0.11233,0.11509,0.11811,0.12154,0.12529,0.12951,0.13412,0.13916,0.14476,0.15077,0.15732,0.16439,0.17188,0.17988,0.1881,0.19657,0.20539,0.21416,0.223,0.2317,0.24017,0.24852,0.25641,0.26386,0.27091,0.27732,0.28331,0.28852,0.29316,0.29727,0.30078,0.30378,0.30631,0.30846,0.31028,0.3118,0.31308,0.31416,0.31505,0.3158,0.31639,0.31685,0.31717,0.31734,0.31738,0.31725,0.31698,0.31654,0.31598,0.3153,0.31455,0.3137,0.31277,0.31179,0.31075,0.30967,0.30853,0.30734,0.30613,0.30487,0.30359,0.30237,0.30099,0.29967,0.29837,0.29702,0.29572,0.29441,0.29317,0.29197,0.29077,0.28964,0.28857,0.28754,0.28655,0.28567,0.28486,0.28415,0.28348,0.28289,0.28234,0.28185,0.2814,0.28099,0.28058,0.28022,0.27988,0.27955,0.27926,0.27896,0.27866,0.27836,0.27802,0.27765,0.27723,0.27675,0.27619,0.27557,0.27483,0.27401,0.2731,0.27206,0.27094,0.26969,0.26833,0.26685,0.26527,0.2636,0.26179,0.25993,0.258,0.25602,0.254,0.25193,0.24987,0.24779,0.24572,0.24368,0.24162,0.23961,0.23762,0.23566,0.23375,0.23184,0.22999,0.22816,0.22637,0.22464,0.22292,0.22127,0.21967,0.21813,0.21665,0.21523,0.21389,0.21265,0.21151,0.21048,0.20956,0.20877,0.20811,0.20756,0.20713,0.20684,0.20672,0.20681,0.20715,0.20777,0.20876,0.21005,0.21175,0.2138,0.21618,0.21891,0.22182,0.22488,0.22785,0.23071,0.23334,0.23564,0.23764,0.23921,0.24044,0.24135,0.24198,0.24245,0.2428,0.24313,0.24346,0.24382,0.24421,0.24462,0.24499,0.24534,0.24562,0.24586,0.24606,0.2463,0.24661,0.24702,0.2476,0.24828,0.24906,0.24986,0.25063,0.25133,0.25192,0.25241,0.2528,0.25312,0.25337,0.25358,0.25375,0.25388,0.254,0.25409,0.25415,0.25412,0.25397,0.25364,0.25311,0.2524,0.2515,0.25045,0.24923,0.2479,0.24647,0.245,0.24351,0.24198,0.2405,0.23904,0.23765,0.23633,0.2351,0.23397,0.23291,0.23195,0.23103,0.23012,0.22918,0.22817,0.22709,0.22591,0.22469,0.2234,0.22205,0.22078,0.21934,0.21786,0.21639,0.21493,0.2136,0.21242,0.21148,0.21077,0.21036,0.21023,0.21038,0.21087,0.21169,0.21283,0.21436,0.21626,0.21854,0.22131,0.2245,0.22819,0.23244,0.23734,0.24303,0.24957,0.25726,0.26588,0.27559,0.28635,0.29807,0.3107,0.32395,0.33799,0.35223,0.36662,0.38075,0.39437,0.40751,0.41969,0.43124,0.44186,0.45159,0.46037,0.46819,0.47513,0.4809,0.48569,0.48934,0.49187,0.49324,0.49355,0.49288,0.49123,0.48877,0.48573,0.48218,0.47829,0.47421,0.46996,0.4657,0.46135,0.45705,0.45275,0.44854,0.44438,0.44026,0.43622,0.43216,0.42819,0.42423,0.42031,0.41642,0.41251,0.40871,0.40489,0.40121,0.39756,0.39409,0.39074,0.38756,0.38461,0.38186,0.37944,0.37727,0.37545,0.37398,0.37288,0.37217,0.37181,0.37184,0.37226,0.37308,0.37429,0.37587,0.37786,0.38023,0.38293,0.38596,0.38923,0.39282,0.39653,0.40046,0.40447,0.40857,0.41277,0.41692,0.42118,0.42533,0.42945,0.43341,0.43727,0.44095,0.44447,0.4478,0.45093,0.45395,0.45675,0.45949,0.46207,0.46454,0.46686,0.46903,0.47106,0.47294,0.47473,0.47637,0.47789,0.47922,0.48046,0.48157,0.48257,0.48339,0.48411,0.48466,0.48507,0.48534,0.48545,0.48537,0.48516,0.48478,0.48427,0.48362,0.4828,0.48184,0.48068,0.47938,0.47787,0.47622,0.47443,0.47255,0.4706,0.46866,0.46669,0.46474,0.46279,0.46075,0.45867,0.45649,0.45431,0.45204,0.4498,0.44749,0.44521,0.44291,0.4406,0.43834,0.43606,0.43375,0.43141,0.42905,0.42665,0.42423,0.42179,0.41939,0.41701,0.41463,0.4123,0.41002,0.4078,0.40564,0.40355,0.40148,0.39945,0.39746,0.3955,0.39356,0.39171,0.38989,0.38814,0.38647,0.38492,0.38344,0.38216,0.38099,0.38007,0.37943,0.37906,0.37903,0.3794,0.38018,0.38143,0.38316,0.38543,0.38817,0.39149,0.39527,0.39964,0.4044,0.40965,0.41518,0.42107,0.42706,0.4332,0.43927,0.44536,0.4513,0.45724,0.46317,0.46912,0.47519,0.48127,0.48732,0.49289,0.49782,0.5016,0.50417,0.50544,0.50577,0.50543,0.50498,0.50475,0.50507,0.50602,0.50764,0.50973,0.51211,0.51444,0.51646,0.518,0.51896,0.51949,0.51963,0.51948,0.51923,0.51881,0.51819,0.51745,0.51656,0.5156,0.51463,0.5137,0.5129,0.51228,0.51174,0.51119,0.51055,0.50966,0.50851,0.50712,0.50565,0.50427,0.50317,0.50237,0.50193,0.50172,0.5017,0.50173,0.50178,0.50177,0.50171,0.50161,0.50143,0.5012,0.50094,0.50079,0.50074,0.50082,0.50118,0.50178,0.50262,0.50384,0.50535,0.50722,0.5095,0.51207,0.515,0.51816,0.5215,0.52493,0.52847,0.53205,0.5357,0.53933,0.54294,0.54653,0.55012,0.55368,0.55735,0.56106,0.56489,0.56886,0.57298,0.57715,0.58143,0.58568,0.58998,0.59406,0.59812,0.60198,0.60588,0.60957,0.61322,0.61674,0.62028,0.62364,0.62694,0.63012,0.63309,0.63608,0.63871,0.64126,0.64353,0.64556,0.64732,0.6489,0.65013,0.65109,0.65185,0.65225,0.65234,0.65228,0.65198,0.65152
-0.023631,-0.023761,-0.023869,-0.023937,-0.023948,-0.023924,-0.023837,-0.023669,-0.023393,-0.023021,-0.022513,-0.021876,-0.02102,-0.019961,-0.01866,-0.017117,-0.01531,-0.013247,-0.010903,-0.0083825,-0.0056473,-0.0027078,0.0003642,0.0035727,0.0068174,0.010122,0.013482,0.016746,0.01995,0.023116,0.026166,0.029086,0.031844,0.034469,0.037033,0.039447,0.041766,0.044076,0.046336,0.048581,0.050805,0.052962,0.055109,0.057117,0.059013,0.060754,0.062269,0.063548,0.064626,0.065419,0.065998,0.06628,0.066344,0.066117,0.065639,0.064884,0.063893,0.062654,0.061199,0.059597,0.057901,0.056102,0.054309,0.052536,0.050803,0.049169,0.047599,0.046172,0.044856,0.043642,0.042575,0.041614,0.040766,0.040038,0.039379,0.038822,0.038331,0.037893,0.037512,0.037168,0.036846,0.036549,0.036267,0.035979,0.03569,0.035387,0.035068,0.034718,0.03434,0.033943,0.033515,0.033076,0.03264,0.032194,0.031779,0.031408,0.031068,0.03079,0.030568,0.030437,0.030376,0.030404,0.030521,0.030748,0.031075,0.031516,0.032091,0.03279,0.033618,0.034591,0.035714,0.037005,0.038435,0.040014,0.041801,0.043721,0.045807,0.048036,0.050394,0.052918,0.055522,0.058201,0.061036,0.063893,0.066811,0.069731,0.072633,0.075565,0.078382,0.081098,0.083729,0.086216,0.08861,0.09087,0.093039,0.095197,0.097287,0.099388,0.10155,0.10383,0.10633,0.10904,0.11203,0.11542,0.11911,0.12325,0.12777,0.13272,0.13826,0.14411,0.15054,0.15751,0.1649,0.17279,0.18095,0.18932,0.19806,0.20675,0.21554,0.2242,0.2326,0.24094,0.24878,0.25622,0.26326,0.26966,0.27564,0.28086,0.28552,0.28962,0.29313,0.29614,0.29866,0.30081,0.30264,0.30416,0.30544,0.30654,0.30742,0.30818,0.30877,0.30923,0.30956,0.30973,0.30977,0.30964,0.30937,0.30894,0.30839,0.30772,0.30696,0.30613,0.30522,0.30425,0.30323,0.30217,0.30107,0.29988,0.2987,0.29745,0.29614,0.29493,0.2936,0.29227,0.29094,0.28958,0.28827,0.28696,0.2857,0.28446,0.28324,0.28208,0.281,0.27996,0.27894,0.27804,0.27723,0.27653,0.27586,0.27525,0.27469,0.2742,0.27373,0.27331,0.2729,0.27253,0.27221,0.27189,0.27157,0.27127,0.27097,0.27066,0.27034,0.26997,0.26955,0.26907,0.26851,0.26788,0.26715,0.26634,0.26541,0.2644,0.26328,0.26202,0.26067,0.25919,0.25761,0.25595,0.25415,0.25229,0.25036,0.24839,0.24638,0.24431,0.24228,0.2402,0.23815,0.23612,0.23407,0.23208,0.2301,0.22816,0.22626,0.22436,0.22253,0.22072,0.21895,0.21723,0.21554,0.21391,0.21234,0.21081,0.20935,0.20796,0.20665,0.20544,0.20432,0.20333,0.20244,0.20168,0.20106,0.20054,0.20015,0.19991,0.19981,0.19993,0.20031,0.20095,0.20195,0.20328,0.20499,0.20707,0.20948,0.21225,0.21519,0.21826,0.22127,0.22416,0.22686,0.22921,0.23128,0.23291,0.23422,0.2352,0.23589,0.23641,0.23681,0.23717,0.23754,0.23792,0.23833,0.23873,0.2391,0.23942,0.23967,0.23986,0.24001,0.24016,0.2404,0.24074,0.24126,0.24189,0.24264,0.24342,0.24418,0.24488,0.24547,0.24597,0.24637,0.24669,0.24694,0.24714,0.24728,0.24738,0.24745,0.2475,0.24752,0.24744,0.24725,0.2469,0.24636,0.24564,0.24473,0.24367,0.24245,0.24112,0.2397,0.23822,0.23675,0.23522,0.23374,0.2323,0.23092,0.2296,0.22837,0.22724,0.22619,0.22522,0.22429,0.22337,0.22243,0.22141,0.22032,0.21914,0.21792,0.21663,0.21527,0.214,0.21257,0.21111,0.20963,0.20819,0.20688,0.20571,0.20476,0.20405,0.20365,0.20352,0.20367,0.20416,0.20495,0.20607,0.20757,0.20945,0.21169,0.21442,0.21758,0.22123,0.22545,0.23033,0.23599,0.2425,0.25017,0.25877,0.26849,0.2792,0.29092,0.30355,0.31686,0.33093,0.3452,0.35966,0.37387,0.38756,0.40079,0.41307,0.42469,0.43537,0.44521,0.45407,0.46194,0.46893,0.47477,0.47962,0.4833,0.48587,0.48726,0.48759,0.4869,0.48524,0.48278,0.47971,0.47613,0.47223,0.46812,0.46384,0.45955,0.45517,0.45085,0.44654,0.44228,0.43812,0.43395,0.42989,0.42583,0.42185,0.41786,0.41394,0.41001,0.40611,0.4023,0.39847,0.39477,0.39112,0.38762,0.38426,0.38108,0.37811,0.37536,0.37293,0.37077,0.36894,0.36745,0.36635,0.36565,0.3653,0.36533,0.36577,0.3666,0.36781,0.36943,0.37143,0.37381,0.37653,0.37959,0.38289,0.38651,0.39027,0.39421,0.39827,0.40242,0.40667,0.41088,0.41517,0.41935,0.42354,0.42751,0.43142,0.43511,0.43866,0.44202,0.44516,0.4482,0.45099,0.45373,0.45631,0.45876,0.46108,0.46325,0.46532,0.46723,0.46899,0.47064,0.47214,0.47349,0.47474,0.47584,0.47682,0.47767,0.47835,0.47892,0.47933,0.4796,0.47969,0.47964,0.47944,0.47909,0.47856,0.4779,0.47707,0.4761,0.47493,0.47364,0.47211,0.47045,0.46865,0.46678,0.46482,0.46289,0.46094,0.459,0.45701,0.45496,0.45289,0.45071,0.44852,0.44625,0.44398,0.44168,0.43938,0.43708,0.4348,0.43252,0.43025,0.42796,0.42561,0.42328,0.42088,0.41842,0.41597,0.41355,0.41114,0.40875,0.40641,0.4041,0.40188,0.39971,0.39759,0.39549,0.39346,0.39145,0.38949,0.38752,0.38566,0.38383,0.38208,0.3804,0.37883,0.37736,0.37608,0.37491,0.374,0.37334,0.37298,0.37296,0.37336,0.37414,0.3754,0.37717,0.37944,0.38221,0.38555,0.38938,0.39381,0.39862,0.40388,0.40947,0.41541,0.42147,0.42764,0.43378,0.43991,0.44592,0.45193,0.45794,0.46396,0.47007,0.4762,0.48228,0.48791,0.49286,0.4967,0.49931,0.50062,0.50094,0.50064,0.50023,0.50006,0.5004,0.50137,0.50304,0.50514,0.50756,0.50991,0.51194,0.51342,0.51433,0.51476,0.51483,0.51467,0.51437,0.51391,0.51328,0.51252,0.51159,0.51064,0.50968,0.50876,0.508,0.50735,0.50682,0.5063,0.5057,0.50486,0.50368,0.50228,0.50072,0.49931,0.49815,0.49734,0.49687,0.49665,0.49661,0.49661,0.49663,0.49663,0.49656,0.49648,0.49629,0.496,0.49576,0.49559,0.49554,0.49563,0.49596,0.49652,0.49735,0.49851,0.50004,0.50194,0.50418,0.50676,0.50968,0.51285,0.51619,0.51964,0.52317,0.52675,0.53039,0.53399,0.53767,0.54119,0.54478,0.54844,0.5521,0.55584,0.55971,0.56367,0.5678,0.572,0.57634,0.58061,0.58493,0.58908,0.59314,0.59699,0.60084,0.60458,0.60824,0.61185,0.61538,0.61882,0.62208,0.62529,0.62835,0.63128,0.63405,0.63657,0.63886,0.64085,0.64261,0.64419,0.64537,0.64635,0.64712,0.64753,0.64757,0.64749,0.64715,0.64669
-0.015174,-0.015314,-0.015437,-0.015511,-0.015513,-0.015473,-0.015363,-0.015152,-0.014821,-0.014381,-0.013747,-0.012961,-0.011927,-0.010644,-0.009055,-0.0071602,-0.0049576,-0.0024536,0.0004128,0.0034836,0.0068063,0.010389,0.014126,0.018024,0.021961,0.025968,0.030042,0.033992,0.037859,0.041675,0.045343,0.04884,0.052144,0.055273,0.058316,0.061173,0.063925,0.066653,0.069323,0.071987,0.074622,0.077197,0.079752,0.082146,0.084401,0.086475,0.088282,0.089815,0.091101,0.092049,0.092739,0.093087,0.093164,0.092907,0.09234,0.091435,0.090243,0.088752,0.086995,0.085057,0.083,0.080813,0.078639,0.076473,0.07437,0.072387,0.070481,0.068738,0.067139,0.06566,0.064355,0.063186,0.062147,0.061251,0.060439,0.05975,0.059138,0.058593,0.058115,0.057682,0.057278,0.056905,0.056546,0.056188,0.055828,0.055447,0.055054,0.054619,0.054154,0.053669,0.05315,0.05262,0.052086,0.051558,0.051064,0.050619,0.050217,0.049889,0.049629,0.049475,0.049405,0.049449,0.049596,0.049877,0.050278,0.050814,0.051513,0.052356,0.053361,0.054542,0.055894,0.057449,0.059174,0.061083,0.063236,0.065538,0.068038,0.070709,0.073537,0.076551,0.079654,0.082846,0.08621,0.089586,0.093034,0.096486,0.099901,0.10336,0.10667,0.10986,0.11298,0.11592,0.11875,0.12145,0.12404,0.12662,0.12911,0.13163,0.13423,0.13696,0.13995,0.14321,0.14676,0.1508,0.1552,0.16015,0.16554,0.17141,0.17795,0.1849,0.19242,0.2005,0.20906,0.21817,0.22753,0.2371,0.24703,0.25685,0.26671,0.27638,0.28575,0.29494,0.30358,0.31173,0.3194,0.32635,0.3328,0.33841,0.34341,0.3478,0.35156,0.35478,0.3575,0.35979,0.36173,0.36335,0.3647,0.36585,0.36678,0.36756,0.36817,0.36863,0.36894,0.36909,0.36908,0.36889,0.36855,0.36803,0.36739,0.36662,0.36575,0.36482,0.3638,0.36274,0.3616,0.36043,0.35917,0.35781,0.35649,0.35513,0.35369,0.35234,0.35085,0.34937,0.3479,0.34639,0.34492,0.34345,0.34203,0.34066,0.3393,0.33802,0.33681,0.33566,0.33453,0.33354,0.33264,0.33186,0.33113,0.33045,0.32982,0.32927,0.32875,0.32828,0.32782,0.32739,0.32701,0.32664,0.32627,0.32594,0.32558,0.32523,0.32484,0.32442,0.32394,0.32341,0.32279,0.3221,0.32129,0.32039,0.31936,0.31823,0.31701,0.31562,0.31415,0.31254,0.31081,0.30899,0.30702,0.305,0.30289,0.30073,0.29854,0.29628,0.29405,0.29178,0.28952,0.28729,0.28505,0.28287,0.28069,0.27855,0.27645,0.27436,0.27234,0.27034,0.26838,0.26649,0.26461,0.26281,0.26108,0.2594,0.2578,0.25627,0.25484,0.2535,0.25229,0.2512,0.25026,0.24946,0.2488,0.24827,0.24787,0.24762,0.24753,0.24769,0.24813,0.24889,0.25006,0.25158,0.25355,0.25594,0.25869,0.26187,0.26525,0.26881,0.27229,0.27565,0.27881,0.28163,0.28415,0.28618,0.28783,0.28911,0.29003,0.29076,0.29132,0.29182,0.29229,0.29277,0.29326,0.29372,0.29413,0.29447,0.2947,0.29479,0.29482,0.29485,0.29496,0.29523,0.2957,0.29634,0.29713,0.29801,0.29889,0.2997,0.30043,0.30106,0.30158,0.302,0.30233,0.30254,0.30269,0.30276,0.30278,0.30277,0.30273,0.30258,0.30233,0.3019,0.30127,0.30045,0.29944,0.29828,0.29693,0.29546,0.29391,0.29229,0.29065,0.28897,0.28733,0.28571,0.28417,0.2827,0.28133,0.28008,0.27889,0.27779,0.27674,0.27569,0.27461,0.27346,0.27223,0.27091,0.26953,0.26809,0.26657,0.26513,0.26352,0.26189,0.26026,0.25867,0.25722,0.25594,0.25492,0.25415,0.25371,0.25358,0.25377,0.25433,0.25524,0.25653,0.25821,0.26033,0.26288,0.26598,0.26955,0.27374,0.27853,0.2841,0.29053,0.29788,0.30648,0.31607,0.3269,0.33879,0.35166,0.36547,0.37991,0.39509,0.41042,0.42586,0.44094,0.45542,0.46931,0.48212,0.49423,0.50527,0.51536,0.52442,0.53245,0.53956,0.54546,0.55029,0.55397,0.55644,0.55782,0.55811,0.55739,0.55567,0.55313,0.54997,0.54634,0.54234,0.53814,0.53375,0.52934,0.52486,0.52038,0.51591,0.51154,0.50722,0.5029,0.49869,0.49445,0.49033,0.48617,0.48207,0.47799,0.47389,0.46989,0.46586,0.46199,0.45815,0.45446,0.45089,0.44754,0.44441,0.44149,0.4389,0.43661,0.43466,0.43306,0.43185,0.43104,0.43063,0.4306,0.43099,0.43179,0.43303,0.43469,0.43675,0.4392,0.44201,0.44517,0.44858,0.45232,0.4562,0.46027,0.46448,0.46875,0.4731,0.47746,0.48187,0.48614,0.4904,0.49447,0.49845,0.50222,0.5058,0.50918,0.51236,0.51538,0.51819,0.52094,0.52349,0.52593,0.52821,0.53034,0.53239,0.53426,0.53601,0.53764,0.53912,0.54046,0.54168,0.54275,0.54372,0.54456,0.54524,0.5458,0.54623,0.54652,0.5466,0.54652,0.54632,0.54597,0.54544,0.54479,0.54393,0.54293,0.54173,0.54037,0.5388,0.53707,0.5352,0.53327,0.53134,0.52934,0.52738,0.52546,0.5235,0.52146,0.51937,0.51716,0.51489,0.51256,0.51025,0.50788,0.50552,0.50318,0.50088,0.49856,0.49622,0.49388,0.49149,0.48908,0.48659,0.48412,0.48158,0.47911,0.47659,0.47412,0.4717,0.46934,0.46704,0.46479,0.4626,0.46043,0.45833,0.45622,0.45423,0.45219,0.45024,0.44834,0.44652,0.4448,0.44319,0.4417,0.44038,0.43921,0.43828,0.43765,0.43733,0.43741,0.43793,0.43889,0.44032,0.44223,0.44478,0.4478,0.45143,0.45555,0.46025,0.46537,0.47094,0.47682,0.48308,0.48939,0.49579,0.50216,0.50856,0.51483,0.52106,0.52725,0.53349,0.53982,0.54609,0.55228,0.55802,0.56312,0.56712,0.56991,0.57149,0.5721,0.57208,0.57204,0.57223,0.57296,0.57431,0.57635,0.5788,0.58145,0.58391,0.58595,0.58724,0.58789,0.58798,0.58773,0.58731,0.58683,0.58624,0.58558,0.58483,0.58403,0.58316,0.58232,0.58156,0.58103,0.58063,0.58038,0.58012,0.57975,0.57903,0.57788,0.57637,0.5747,0.57307,0.57177,0.57082,0.57026,0.56998,0.5699,0.56992,0.56997,0.56999,0.56995,0.56985,0.56966,0.56942,0.5692,0.56902,0.569,0.56908,0.56939,0.56996,0.57082,0.57201,0.57353,0.57541,0.57762,0.58022,0.58307,0.58617,0.58942,0.59277,0.59633,0.59987,0.60342,0.60696,0.61057,0.6141,0.6177,0.62127,0.62481,0.62847,0.63227,0.63619,0.64029,0.64441,0.64863,0.65289,0.6571,0.66124,0.66533,0.66918,0.67307,0.6768,0.68036,0.68397,0.68744,0.69073,0.69403,0.6972,0.7003,0.70318,0.70589,0.70837,0.71062,0.7126,0.71438,0.71589,0.71709,0.71799,0.71865,0.71901,0.71914,0.71901,0.71863,0.71811
-0.015738,-0.015869,-0.01598,-0.016044,-0.016044,-0.016005,-0.015885,-0.015686,-0.015361,-0.014914,-0.014289,-0.013519,-0.012489,-0.011216,-0.0096395,-0.0077608,-0.0055771,-0.0030842,-0.0002363,0.0028171,0.0061219,0.0096862,0.013406,0.017296,0.021222,0.025214,0.029273,0.033217,0.037078,0.040893,0.044546,0.048036,0.051336,0.054457,0.057495,0.060344,0.063093,0.06582,0.068481,0.071128,0.073759,0.076317,0.078865,0.081253,0.083505,0.085571,0.087375,0.088902,0.090185,0.091141,0.091838,0.09219,0.092271,0.092014,0.091454,0.090563,0.089382,0.087905,0.086159,0.084239,0.082198,0.080028,0.077867,0.075728,0.073635,0.071662,0.069767,0.068042,0.066451,0.064985,0.063686,0.062519,0.061483,0.060587,0.059781,0.059094,0.058486,0.057939,0.057464,0.057032,0.056632,0.056252,0.055894,0.055537,0.055172,0.05479,0.054405,0.053966,0.053503,0.053012,0.052488,0.05196,0.051428,0.050896,0.050407,0.049956,0.049553,0.049226,0.048967,0.048816,0.048744,0.048791,0.04894,0.049221,0.049628,0.050175,0.050873,0.051718,0.052727,0.053917,0.055275,0.056838,0.058566,0.060481,0.062648,0.064958,0.067476,0.070162,0.073003,0.076028,0.079152,0.082354,0.085744,0.089133,0.092594,0.096066,0.099492,0.10295,0.10627,0.10948,0.11262,0.11558,0.11844,0.12116,0.12378,0.12639,0.12892,0.13145,0.13408,0.13683,0.13984,0.14312,0.14672,0.15081,0.15526,0.16028,0.16575,0.17171,0.17835,0.1854,0.19306,0.20131,0.21002,0.21931,0.22884,0.23861,0.24875,0.25877,0.26885,0.27874,0.28832,0.29773,0.30657,0.31489,0.32274,0.32984,0.33642,0.34215,0.34727,0.35176,0.3556,0.35889,0.36167,0.36402,0.36601,0.36767,0.36905,0.37022,0.37117,0.37196,0.37257,0.37303,0.37334,0.37348,0.37346,0.37325,0.3729,0.37236,0.37169,0.3709,0.37001,0.36904,0.36797,0.36684,0.36566,0.3644,0.36305,0.36166,0.36027,0.35885,0.35736,0.35595,0.35439,0.35289,0.35136,0.34982,0.3483,0.34681,0.34535,0.34394,0.34255,0.34125,0.34001,0.33884,0.33769,0.33668,0.33576,0.33495,0.33421,0.33354,0.3329,0.33234,0.33181,0.33132,0.33085,0.33042,0.33002,0.32963,0.32926,0.32891,0.32854,0.32817,0.32776,0.32732,0.32684,0.32628,0.32565,0.32494,0.3241,0.32318,0.32213,0.32098,0.31973,0.31831,0.31681,0.31516,0.3134,0.31153,0.30954,0.30747,0.30531,0.30311,0.30087,0.29857,0.29628,0.29398,0.29169,0.28941,0.28711,0.28489,0.28267,0.28049,0.27836,0.27623,0.27418,0.27214,0.27015,0.26823,0.26633,0.2645,0.26273,0.26104,0.25942,0.25786,0.2564,0.25507,0.25385,0.25277,0.25183,0.25103,0.25039,0.24987,0.24949,0.24926,0.2492,0.24937,0.24983,0.25059,0.25178,0.25332,0.25531,0.25769,0.26046,0.26363,0.26701,0.27057,0.27406,0.27742,0.28058,0.2834,0.2859,0.28793,0.28957,0.29085,0.29176,0.2925,0.29308,0.29361,0.29411,0.29463,0.29514,0.29562,0.29603,0.29636,0.29657,0.29668,0.29672,0.29676,0.29689,0.29716,0.29765,0.29831,0.29912,0.3,0.30087,0.30169,0.30242,0.30304,0.30356,0.30399,0.30432,0.30456,0.30474,0.30484,0.30488,0.3049,0.30488,0.30477,0.30454,0.30411,0.3035,0.30269,0.30169,0.30052,0.29917,0.2977,0.29613,0.2945,0.29284,0.29115,0.28949,0.28786,0.2863,0.28484,0.28345,0.28217,0.28096,0.27985,0.27878,0.27771,0.27661,0.27543,0.27419,0.27285,0.27146,0.26999,0.26845,0.26698,0.26535,0.2637,0.26205,0.26043,0.25897,0.25769,0.25666,0.2559,0.25547,0.25535,0.25556,0.25614,0.25708,0.25839,0.2601,0.26226,0.26484,0.26801,0.27167,0.27595,0.28092,0.28666,0.29329,0.30084,0.30969,0.31956,0.33065,0.3429,0.35613,0.37035,0.38524,0.40088,0.41666,0.43259,0.44813,0.46307,0.47741,0.49059,0.50306,0.51441,0.52476,0.53408,0.54231,0.54959,0.55561,0.56055,0.56431,0.56684,0.5682,0.56846,0.56768,0.56586,0.56325,0.56002,0.55626,0.55215,0.54781,0.54328,0.53874,0.53407,0.52948,0.52487,0.52035,0.51589,0.51143,0.50709,0.5027,0.49841,0.49412,0.48988,0.48566,0.48144,0.47731,0.47315,0.46914,0.46517,0.46135,0.45771,0.45422,0.45099,0.44797,0.44528,0.44288,0.44085,0.43918,0.43793,0.43709,0.43665,0.4366,0.43701,0.43783,0.43909,0.44078,0.4429,0.4454,0.44826,0.4515,0.45501,0.45882,0.4628,0.46697,0.47123,0.47561,0.48006,0.48452,0.489,0.49337,0.49775,0.50193,0.50597,0.50983,0.51346,0.51693,0.52021,0.52332,0.52621,0.52901,0.53163,0.53414,0.53649,0.53869,0.54076,0.54269,0.54448,0.54617,0.54765,0.54901,0.55028,0.5514,0.55243,0.55326,0.55398,0.55456,0.55498,0.55525,0.55534,0.5553,0.5551,0.55473,0.5542,0.55351,0.55264,0.55163,0.55041,0.549,0.54738,0.54558,0.54365,0.54169,0.53968,0.53764,0.53564,0.53364,0.53162,0.52954,0.52738,0.5251,0.52279,0.52039,0.51803,0.5156,0.51321,0.51079,0.50841,0.506,0.5036,0.50119,0.49873,0.49628,0.49378,0.49121,0.48862,0.48608,0.48353,0.48104,0.4786,0.47619,0.47386,0.47161,0.46941,0.46723,0.46512,0.463,0.46096,0.45891,0.45697,0.45507,0.45321,0.45143,0.44982,0.44831,0.44697,0.4458,0.44488,0.44428,0.44398,0.44411,0.44468,0.4457,0.44723,0.44929,0.45192,0.45507,0.45885,0.46312,0.46797,0.47321,0.47895,0.48496,0.49126,0.49767,0.50418,0.5106,0.51705,0.52336,0.52959,0.53586,0.54213,0.54847,0.5548,0.56101,0.56685,0.57195,0.57596,0.57876,0.58024,0.58082,0.58081,0.58066,0.58085,0.58158,0.5829,0.5849,0.58737,0.59004,0.59252,0.5946,0.59603,0.59679,0.59703,0.59692,0.59655,0.59616,0.59563,0.59503,0.59431,0.59349,0.59263,0.59178,0.59097,0.59034,0.58996,0.58966,0.58937,0.58893,0.58818,0.58697,0.58551,0.58385,0.58226,0.58097,0.58003,0.5795,0.57921,0.57919,0.57916,0.57921,0.57921,0.57918,0.57905,0.57885,0.57861,0.57837,0.57823,0.57817,0.57832,0.5787,0.57927,0.58012,0.58131,0.58288,0.5848,0.58706,0.5897,0.59262,0.59576,0.59915,0.60267,0.60623,0.60984,0.61356,0.61725,0.62094,0.62458,0.62815,0.63182,0.63549,0.63937,0.64334,0.64735,0.65161,0.65586,0.66026,0.66456,0.66903,0.67326,0.67749,0.68147,0.68545,0.68929,0.69307,0.69673,0.70029,0.70384,0.70724,0.71043,0.71357,0.71656,0.71943,0.72201,0.72433,0.72645,0.72826,0.72982,0.73116,0.73222,0.73292,0.73335,0.73355,0.73333,0.733,0.7325
-0.012641,-0.012772,-0.012884,-0.012944,-0.012941,-0.012906,-0.012799,-0.012598,-0.012283,-0.011851,-0.011238,-0.010469,-0.0094628,-0.0082008,-0.0066465,-0.0047881,-0.0026244,-0.0001592,0.0026477,0.0056662,0.0089389,0.012445,0.016104,0.019915,0.023764,0.027679,0.031662,0.035523,0.039314,0.04306,0.046652,0.050095,0.053353,0.056447,0.059453,0.062284,0.065015,0.067719,0.070365,0.072997,0.075602,0.078142,0.080654,0.083011,0.085225,0.087245,0.089008,0.090496,0.091739,0.092659,0.093329,0.093656,0.093715,0.093447,0.092878,0.091987,0.090802,0.089334,0.087596,0.085695,0.083669,0.081528,0.079388,0.077273,0.075208,0.073265,0.071395,0.069693,0.068127,0.06668,0.065401,0.06425,0.063226,0.062344,0.061548,0.060868,0.060273,0.059739,0.059268,0.058843,0.058451,0.058081,0.057739,0.057383,0.057035,0.056666,0.05628,0.05586,0.05541,0.054931,0.054416,0.053893,0.053363,0.052839,0.052342,0.051898,0.051498,0.051167,0.050905,0.050746,0.05067,0.050702,0.05084,0.051111,0.051496,0.052017,0.052696,0.053511,0.054487,0.055636,0.056961,0.058477,0.060155,0.062011,0.064115,0.066359,0.068805,0.071416,0.074178,0.077121,0.080159,0.08328,0.086566,0.089867,0.093226,0.096599,0.099928,0.10329,0.10652,0.10964,0.11267,0.11555,0.11832,0.12095,0.12349,0.12602,0.12847,0.13093,0.13344,0.1361,0.13899,0.14214,0.14558,0.14951,0.15376,0.15857,0.1638,0.16951,0.17585,0.18261,0.18994,0.19784,0.20619,0.2151,0.22427,0.23366,0.24344,0.25312,0.26287,0.27245,0.28174,0.29089,0.2995,0.30762,0.31527,0.32223,0.3287,0.33433,0.33935,0.34377,0.34757,0.35083,0.35358,0.35591,0.3579,0.35957,0.36095,0.36213,0.36307,0.36388,0.36451,0.365,0.36533,0.3655,0.36551,0.36533,0.36502,0.36454,0.36394,0.36321,0.36238,0.36149,0.36052,0.3595,0.35841,0.35726,0.35606,0.35475,0.35343,0.35209,0.35069,0.34935,0.34786,0.34641,0.34495,0.34346,0.342,0.34053,0.33912,0.33775,0.3364,0.33511,0.33391,0.33275,0.33163,0.33065,0.32977,0.32898,0.32824,0.32757,0.32694,0.32639,0.32587,0.32539,0.32492,0.3245,0.32412,0.32375,0.32339,0.32305,0.32269,0.32234,0.32197,0.32155,0.32108,0.32054,0.31993,0.31924,0.31842,0.31752,0.3165,0.31538,0.31416,0.31277,0.31129,0.30968,0.30795,0.30613,0.30416,0.30215,0.30004,0.29789,0.2957,0.29345,0.2912,0.28895,0.2867,0.28449,0.28225,0.28006,0.2779,0.27576,0.27369,0.27161,0.26959,0.26761,0.26566,0.26378,0.26192,0.26012,0.25839,0.25674,0.25514,0.25361,0.25217,0.25085,0.24964,0.24856,0.24761,0.24682,0.24616,0.24563,0.24525,0.24502,0.24495,0.24513,0.2456,0.24637,0.24756,0.2491,0.25109,0.25348,0.25624,0.25941,0.26277,0.2663,0.26975,0.27307,0.27619,0.27895,0.2814,0.28341,0.28502,0.28628,0.2872,0.28792,0.28849,0.289,0.2895,0.29,0.29051,0.291,0.29142,0.29177,0.292,0.2921,0.29211,0.29213,0.29222,0.29245,0.2929,0.29353,0.2943,0.29514,0.29599,0.29678,0.29747,0.29806,0.29856,0.29893,0.29922,0.29941,0.29954,0.29957,0.29955,0.2995,0.29944,0.29929,0.29901,0.29857,0.29793,0.2971,0.29608,0.29492,0.29358,0.29212,0.29057,0.28895,0.28731,0.28563,0.28399,0.28238,0.28084,0.27938,0.27801,0.27674,0.27554,0.27444,0.27338,0.27232,0.27124,0.27007,0.26885,0.26753,0.26615,0.26471,0.2632,0.26175,0.26016,0.25852,0.25689,0.25532,0.25389,0.25262,0.2516,0.25084,0.25039,0.25025,0.25043,0.25097,0.25187,0.25308,0.25471,0.25674,0.25919,0.2622,0.2657,0.26982,0.27457,0.28004,0.2864,0.29365,0.30215,0.31163,0.32233,0.3341,0.34687,0.3606,0.37498,0.39011,0.40541,0.4209,0.43601,0.4506,0.46463,0.47761,0.48988,0.50107,0.51136,0.52057,0.52878,0.53605,0.5421,0.54709,0.55095,0.5536,0.55504,0.5554,0.55475,0.55305,0.55055,0.54745,0.54381,0.53981,0.53561,0.53119,0.52677,0.52223,0.51777,0.51327,0.50889,0.50454,0.50024,0.49603,0.49181,0.48765,0.4835,0.47938,0.4753,0.4712,0.46718,0.46314,0.45923,0.45535,0.45162,0.44805,0.44465,0.44149,0.43855,0.43596,0.43363,0.43165,0.43003,0.42883,0.42803,0.42761,0.4276,0.42805,0.42888,0.43014,0.43181,0.43394,0.43648,0.43934,0.44257,0.44608,0.44989,0.45386,0.45804,0.46235,0.4667,0.47117,0.47564,0.48014,0.48449,0.48886,0.49298,0.49703,0.50084,0.50445,0.50784,0.51103,0.51406,0.51688,0.51961,0.52214,0.52455,0.52685,0.52901,0.53101,0.53289,0.53463,0.53627,0.53778,0.53909,0.54037,0.54146,0.54245,0.54332,0.54404,0.5446,0.54502,0.54529,0.54539,0.54536,0.54515,0.54481,0.54426,0.54359,0.54276,0.54176,0.54058,0.53922,0.53766,0.53595,0.5341,0.5322,0.53026,0.52833,0.52638,0.5245,0.52258,0.52056,0.51851,0.5163,0.5141,0.51177,0.50947,0.50717,0.50486,0.50254,0.50023,0.49793,0.49562,0.49328,0.4909,0.4885,0.48599,0.4835,0.48095,0.47845,0.47594,0.47346,0.471,0.46859,0.46624,0.46395,0.46172,0.45952,0.4574,0.45524,0.45317,0.45109,0.44909,0.44715,0.44528,0.44349,0.4418,0.44024,0.43888,0.43767,0.43669,0.436,0.43567,0.43569,0.43616,0.43708,0.43853,0.44045,0.44296,0.44599,0.44966,0.45381,0.45859,0.4638,0.46948,0.4755,0.48184,0.48829,0.4949,0.50147,0.50801,0.51441,0.52077,0.5271,0.53341,0.53985,0.54621,0.5525,0.55834,0.5635,0.56757,0.57047,0.57202,0.57268,0.57273,0.57272,0.57295,0.57377,0.57527,0.57741,0.57994,0.58268,0.58519,0.5872,0.58848,0.58901,0.58898,0.58857,0.588,0.58748,0.58685,0.58614,0.58536,0.58445,0.58356,0.58271,0.58199,0.58149,0.58116,0.58102,0.58086,0.58051,0.5798,0.57867,0.57707,0.57529,0.5736,0.5722,0.57116,0.57055,0.57022,0.57012,0.57009,0.57011,0.57009,0.57,0.56987,0.5697,0.56944,0.56917,0.56903,0.56896,0.56907,0.56936,0.56994,0.5708,0.572,0.57353,0.57543,0.57766,0.58021,0.58312,0.58622,0.58953,0.59298,0.59647,0.60005,0.60368,0.60725,0.61095,0.61449,0.61809,0.62174,0.62536,0.62897,0.63289,0.63689,0.6411,0.64531,0.64962,0.65389,0.65829,0.66235,0.66653,0.67053,0.67449,0.67825,0.682,0.68557,0.68914,0.69248,0.69589,0.69913,0.70216,0.70515,0.70781,0.71041,0.71268,0.71472,0.71647,0.71792,0.71913,0.72007,0.72072,0.72111,0.7212,0.72106,0.72066,0.72008
-0.013703,-0.013819,-0.013929,-0.013992,-0.013981,-0.013952,-0.013834,-0.013634,-0.013308,-0.012879,-0.012257,-0.01148,-0.010461,-0.0091864,-0.0075978,-0.0057182,-0.0035311,-0.0010331,0.0018133,0.004875,0.0081885,0.01175,0.015459,0.019343,0.023266,0.027256,0.031326,0.035272,0.039144,0.042978,0.046657,0.050185,0.053514,0.056663,0.05973,0.062607,0.065375,0.06813,0.070823,0.073509,0.076174,0.078772,0.08135,0.083769,0.086045,0.088124,0.089938,0.091472,0.09276,0.093714,0.094405,0.09476,0.094838,0.094572,0.093995,0.093084,0.091864,0.090338,0.088536,0.086546,0.084426,0.082177,0.079934,0.077717,0.075557,0.073523,0.071577,0.069804,0.068174,0.066666,0.065338,0.064144,0.063081,0.062164,0.061337,0.060636,0.060012,0.059454,0.058972,0.05853,0.05812,0.057748,0.057389,0.057035,0.056677,0.056302,0.055917,0.055488,0.055034,0.054548,0.05403,0.0535,0.052965,0.052435,0.051934,0.051487,0.051083,0.050748,0.050486,0.050328,0.050253,0.050293,0.050436,0.050712,0.05111,0.051641,0.052331,0.053168,0.054167,0.055338,0.056683,0.058226,0.059941,0.061835,0.063979,0.066271,0.068758,0.071422,0.074236,0.077241,0.080333,0.083515,0.086874,0.090239,0.093683,0.097126,0.10053,0.10398,0.10729,0.11049,0.11361,0.11658,0.11946,0.12219,0.12482,0.12745,0.12999,0.13255,0.13517,0.13793,0.14093,0.1442,0.14778,0.15182,0.15627,0.16123,0.16663,0.17249,0.17901,0.18595,0.19348,0.20156,0.21014,0.2193,0.22869,0.23832,0.24831,0.25821,0.26815,0.2779,0.28736,0.29667,0.30542,0.31366,0.32143,0.32849,0.33505,0.34075,0.34585,0.35036,0.3542,0.3575,0.36029,0.36264,0.36468,0.36636,0.36776,0.36896,0.36993,0.37075,0.3714,0.37189,0.37223,0.3724,0.37242,0.37226,0.37196,0.37147,0.37088,0.37015,0.36934,0.36844,0.36745,0.36642,0.36532,0.36416,0.3629,0.3616,0.36029,0.35891,0.35748,0.35611,0.35463,0.35316,0.35169,0.3502,0.34873,0.34729,0.34585,0.34446,0.3431,0.34182,0.3406,0.33943,0.3383,0.3373,0.33639,0.33558,0.33487,0.33417,0.33353,0.33296,0.33241,0.33192,0.33143,0.33099,0.33059,0.3302,0.32982,0.32947,0.32911,0.32876,0.32837,0.32796,0.32748,0.32694,0.32631,0.32561,0.32479,0.32388,0.32285,0.32171,0.32047,0.31907,0.31757,0.31595,0.31422,0.31237,0.31038,0.30833,0.3062,0.30402,0.3018,0.29953,0.29727,0.29499,0.29271,0.29047,0.2882,0.28598,0.28379,0.28164,0.27954,0.27743,0.2754,0.27339,0.27142,0.26952,0.26763,0.26583,0.26407,0.26239,0.26079,0.25925,0.25781,0.25649,0.25528,0.25421,0.25327,0.2525,0.25187,0.25137,0.25101,0.2508,0.25078,0.25099,0.2515,0.25232,0.25359,0.25521,0.2573,0.2598,0.26269,0.26602,0.26954,0.27323,0.27682,0.2803,0.28356,0.28647,0.28907,0.29119,0.29291,0.29428,0.29527,0.29606,0.29668,0.29724,0.29777,0.2983,0.29884,0.29935,0.29977,0.30011,0.30031,0.30036,0.30032,0.30026,0.30029,0.30046,0.30086,0.30144,0.3022,0.30304,0.30389,0.30471,0.30543,0.30605,0.30656,0.30695,0.30726,0.30743,0.3075,0.30749,0.30743,0.30732,0.3072,0.30698,0.30667,0.30617,0.30549,0.30463,0.30358,0.30237,0.30099,0.2995,0.29791,0.29625,0.29458,0.29287,0.29119,0.28954,0.28796,0.28647,0.28507,0.28376,0.28255,0.28143,0.28034,0.27925,0.27813,0.27694,0.27567,0.27433,0.27292,0.27145,0.26991,0.26844,0.2668,0.26515,0.26351,0.26191,0.26045,0.25917,0.25815,0.25738,0.25693,0.2568,0.25698,0.25752,0.25843,0.2597,0.26137,0.26346,0.26595,0.26905,0.27261,0.27683,0.28172,0.28738,0.29389,0.30133,0.31001,0.31971,0.33058,0.34258,0.35554,0.36947,0.384,0.3993,0.41474,0.43032,0.44556,0.46021,0.47429,0.48729,0.4996,0.51082,0.52108,0.53034,0.53853,0.54581,0.55187,0.55689,0.56073,0.56339,0.56486,0.56523,0.56459,0.56297,0.56052,0.55747,0.55385,0.5499,0.54574,0.54139,0.53699,0.53251,0.52807,0.52361,0.51926,0.51496,0.51066,0.50648,0.50227,0.49815,0.49405,0.48997,0.48589,0.48181,0.47781,0.47376,0.46986,0.46598,0.46224,0.45865,0.45528,0.4521,0.44913,0.4465,0.44415,0.44216,0.44052,0.43928,0.43845,0.43804,0.43798,0.43839,0.4392,0.44044,0.4421,0.44419,0.44668,0.44951,0.45271,0.4562,0.46001,0.46395,0.46809,0.47237,0.47674,0.4812,0.48564,0.4901,0.49445,0.4988,0.50292,0.50695,0.51069,0.51425,0.5176,0.52074,0.52372,0.52647,0.52917,0.53164,0.534,0.53625,0.53833,0.54031,0.54215,0.54387,0.54549,0.54691,0.54824,0.54947,0.55057,0.55155,0.55239,0.5531,0.55366,0.55409,0.55437,0.55448,0.55446,0.55426,0.5539,0.5534,0.55277,0.55193,0.55097,0.54979,0.54844,0.54691,0.54522,0.5434,0.54152,0.53965,0.53778,0.53587,0.534,0.53212,0.53018,0.52819,0.52604,0.52386,0.52158,0.51931,0.51704,0.51476,0.51246,0.5102,0.50794,0.50567,0.50334,0.50096,0.49857,0.49612,0.49364,0.49112,0.48862,0.48611,0.48363,0.4812,0.47882,0.47649,0.47419,0.47195,0.46973,0.46758,0.46544,0.46334,0.46126,0.45925,0.45728,0.4554,0.45361,0.4519,0.45034,0.44897,0.44773,0.44679,0.44613,0.44575,0.44582,0.44628,0.44721,0.44865,0.45057,0.45311,0.45616,0.45981,0.46401,0.46877,0.47397,0.4797,0.48571,0.49205,0.49853,0.50514,0.5117,0.51822,0.52467,0.53102,0.53738,0.54372,0.55014,0.5565,0.56277,0.56862,0.5738,0.57782,0.58071,0.58232,0.58297,0.58306,0.58309,0.58337,0.58424,0.58572,0.58788,0.59043,0.59317,0.59565,0.59764,0.59883,0.59935,0.59925,0.59882,0.59823,0.59764,0.59697,0.59627,0.59549,0.59458,0.59371,0.59292,0.59226,0.59175,0.59151,0.5914,0.59128,0.59099,0.59033,0.58917,0.58759,0.5858,0.58409,0.58271,0.58169,0.5811,0.58083,0.58074,0.58075,0.5808,0.58078,0.58071,0.58057,0.58044,0.5802,0.57992,0.57979,0.5798,0.57988,0.58024,0.58082,0.58163,0.58283,0.58439,0.58627,0.58848,0.59106,0.59398,0.59707,0.60035,0.60371,0.60724,0.61076,0.61431,0.61789,0.62142,0.62503,0.6285,0.63196,0.63562,0.63924,0.64312,0.64706,0.65119,0.65537,0.65969,0.66393,0.66819,0.6723,0.67644,0.68034,0.68419,0.68792,0.69167,0.6952,0.69871,0.70209,0.70535,0.70859,0.71155,0.71443,0.7171,0.71964,0.72192,0.7239,0.72554,0.72709,0.7283,0.7293,0.72985,0.73028,0.73041,0.73019,0.72982,0.72932
-0.017899,-0.018007,-0.018105,-0.018165,-0.018156,-0.018117,-0.018022,-0.017832,-0.017544,-0.01715,-0.016595,-0.015902,-0.014975,-0.013835,-0.012432,-0.010741,-0.0087831,-0.0065483,-0.0039994,-0.0012638,0.0016907,0.0048808,0.0081979,0.011666,0.015175,0.018739,0.022389,0.025924,0.029399,0.032834,0.036139,0.039301,0.042291,0.045123,0.047881,0.050473,0.052966,0.055443,0.057874,0.060303,0.062706,0.065049,0.067386,0.069569,0.071624,0.073508,0.075157,0.076549,0.077714,0.078576,0.079206,0.079524,0.079596,0.079357,0.078842,0.078015,0.076917,0.075546,0.073924,0.072134,0.070229,0.068211,0.066197,0.064207,0.062276,0.060446,0.05869,0.057102,0.055641,0.054292,0.0531,0.052029,0.051076,0.050254,0.049514,0.048884,0.048326,0.047831,0.047397,0.047005,0.046634,0.046298,0.045979,0.04566,0.04534,0.045,0.044646,0.044257,0.043839,0.0434,0.042935,0.042451,0.04197,0.04149,0.041036,0.040624,0.040253,0.039956,0.039709,0.039564,0.039491,0.039517,0.039639,0.039879,0.040233,0.040706,0.041323,0.042076,0.042968,0.044016,0.045221,0.046609,0.048144,0.04985,0.05178,0.053844,0.056089,0.058485,0.061025,0.063728,0.066524,0.069389,0.072425,0.07547,0.07858,0.081685,0.084765,0.087879,0.090873,0.093774,0.096599,0.099275,0.10187,0.10433,0.10671,0.10909,0.11139,0.1137,0.11607,0.11855,0.12125,0.1242,0.12743,0.13113,0.13514,0.13962,0.14447,0.14973,0.15563,0.16195,0.16879,0.17616,0.18398,0.19234,0.20092,0.20974,0.21892,0.22798,0.23714,0.24614,0.25486,0.26345,0.27155,0.27918,0.28639,0.29294,0.29901,0.30432,0.30908,0.31326,0.31685,0.31994,0.32255,0.32476,0.32666,0.32824,0.32956,0.33068,0.33159,0.33236,0.33298,0.33344,0.33376,0.33394,0.33396,0.33382,0.33354,0.3331,0.33255,0.33187,0.33111,0.33029,0.32937,0.32841,0.32739,0.3263,0.32518,0.32399,0.32277,0.32148,0.3201,0.31884,0.31745,0.31609,0.31473,0.31334,0.31196,0.31062,0.30929,0.30802,0.30677,0.30559,0.30451,0.30345,0.3024,0.3015,0.30067,0.29992,0.29922,0.29859,0.29801,0.2975,0.29701,0.29657,0.29613,0.29573,0.29537,0.29502,0.29469,0.29438,0.29404,0.29373,0.29338,0.29299,0.29257,0.29206,0.29148,0.29083,0.29007,0.28923,0.28827,0.28722,0.28606,0.28475,0.28336,0.28184,0.28022,0.2785,0.27665,0.27475,0.27276,0.27072,0.26866,0.26653,0.26443,0.26231,0.26019,0.2581,0.256,0.25395,0.25191,0.2499,0.24795,0.24599,0.2441,0.24224,0.24042,0.23865,0.23692,0.23523,0.23362,0.23205,0.23057,0.22915,0.22781,0.22658,0.22546,0.22447,0.22359,0.22286,0.22227,0.22178,0.22143,0.22123,0.22117,0.22134,0.22178,0.22249,0.22362,0.22508,0.22694,0.2292,0.2318,0.23481,0.238,0.24134,0.24462,0.24778,0.25076,0.2534,0.25576,0.25769,0.25923,0.26045,0.26133,0.26203,0.26256,0.26305,0.2635,0.26396,0.26442,0.26487,0.26525,0.26555,0.26575,0.26582,0.26582,0.2658,0.26587,0.26608,0.26649,0.26706,0.26778,0.26856,0.26936,0.27011,0.27077,0.27133,0.27179,0.27215,0.27242,0.27259,0.27269,0.27271,0.27268,0.27263,0.27254,0.27237,0.27209,0.27166,0.27104,0.27026,0.26929,0.26819,0.26691,0.26554,0.26406,0.26253,0.26098,0.25939,0.25784,0.25633,0.25488,0.2535,0.25221,0.25102,0.24989,0.24884,0.24784,0.24683,0.24582,0.24472,0.24357,0.24233,0.24103,0.23968,0.23825,0.23691,0.23539,0.23386,0.23235,0.23088,0.22954,0.22836,0.22741,0.2267,0.22629,0.22617,0.22633,0.22683,0.22766,0.22882,0.23034,0.23226,0.23455,0.23738,0.24068,0.24456,0.24905,0.25425,0.26029,0.26713,0.27511,0.28404,0.29414,0.30529,0.31736,0.33033,0.34391,0.35827,0.37277,0.38742,0.40179,0.41566,0.429,0.44136,0.45304,0.46372,0.47351,0.48234,0.49018,0.49716,0.50294,0.50776,0.51144,0.51396,0.51535,0.51568,0.51502,0.5134,0.51095,0.50796,0.50447,0.50064,0.49661,0.49238,0.48813,0.48381,0.47952,0.47524,0.47102,0.4669,0.46277,0.45874,0.4547,0.45076,0.4468,0.4429,0.43901,0.43512,0.43132,0.42747,0.42378,0.42012,0.4166,0.41323,0.41004,0.40707,0.40429,0.40182,0.39962,0.39777,0.39626,0.39514,0.3944,0.39402,0.39401,0.39442,0.39524,0.39645,0.39807,0.40009,0.40247,0.40519,0.40827,0.41159,0.41522,0.41897,0.42293,0.427,0.43116,0.4354,0.43962,0.4439,0.44806,0.45221,0.45616,0.46003,0.46367,0.46713,0.47041,0.47348,0.47639,0.47912,0.48175,0.48424,0.48659,0.48879,0.49087,0.49284,0.49468,0.49644,0.49801,0.49945,0.50077,0.50199,0.5031,0.50409,0.50493,0.50562,0.5062,0.5066,0.5069,0.50701,0.50702,0.50684,0.50651,0.50603,0.50539,0.50462,0.50369,0.50256,0.50128,0.4998,0.49817,0.49639,0.49457,0.49271,0.49085,0.48901,0.48719,0.4853,0.48335,0.48136,0.47923,0.4771,0.47487,0.47266,0.47042,0.46818,0.46595,0.46372,0.4615,0.45928,0.45704,0.45476,0.45246,0.45011,0.44774,0.44531,0.44295,0.44056,0.43821,0.43588,0.43359,0.43137,0.42918,0.42708,0.42499,0.42294,0.42094,0.41897,0.41701,0.41514,0.4133,0.41154,0.40984,0.40829,0.40682,0.40551,0.40438,0.40349,0.40285,0.40252,0.40254,0.40298,0.40385,0.40519,0.40702,0.40937,0.41222,0.41565,0.41955,0.42404,0.42893,0.43432,0.44001,0.44602,0.45215,0.45838,0.46462,0.47086,0.47698,0.48309,0.48912,0.49522,0.5014,0.50752,0.51356,0.51913,0.52407,0.52797,0.53063,0.53207,0.53253,0.53246,0.53231,0.53241,0.53305,0.53432,0.53622,0.53858,0.54112,0.5435,0.54546,0.54678,0.54744,0.54756,0.54736,0.54693,0.54649,0.54595,0.54528,0.54451,0.5437,0.54277,0.54191,0.54114,0.54058,0.5402,0.53992,0.53967,0.53927,0.53857,0.53747,0.53602,0.53442,0.53288,0.53163,0.53071,0.5302,0.52997,0.5299,0.52993,0.52992,0.52991,0.52984,0.52976,0.5296,0.52933,0.52911,0.52896,0.52892,0.52905,0.52935,0.52995,0.53078,0.53193,0.53343,0.53524,0.53741,0.53991,0.54275,0.54576,0.54894,0.5523,0.55565,0.55913,0.5626,0.56611,0.56962,0.57307,0.57661,0.58005,0.58372,0.58735,0.59113,0.59504,0.59909,0.60319,0.60741,0.61152,0.61569,0.61979,0.62377,0.62767,0.63144,0.63518,0.63875,0.64223,0.64562,0.6489,0.65217,0.65534,0.6583,0.66124,0.66388,0.66637,0.66858,0.67059,0.67236,0.67379,0.67501,0.67599,0.67662,0.67707,0.67715,0.67698,0.67664,0.67609
-0.020009,-0.020104,-0.020196,-0.020248,-0.020244,-0.020208,-0.02011,-0.019942,-0.019645,-0.019247,-0.018699,-0.018,-0.017093,-0.015954,-0.014564,-0.01289,-0.010935,-0.0087278,-0.0061875,-0.0034651,-0.0005267,0.0026316,0.0059339,0.0093766,0.01285,0.016386,0.01999,0.023488,0.026919,0.030313,0.033575,0.036704,0.039655,0.042459,0.045185,0.047749,0.050219,0.052675,0.055077,0.057478,0.05986,0.062169,0.064462,0.066615,0.068646,0.070505,0.072122,0.073489,0.074639,0.075483,0.076093,0.076405,0.076469,0.076223,0.075713,0.074904,0.073824,0.07248,0.070891,0.069147,0.067292,0.065323,0.063361,0.061428,0.05953,0.057743,0.056026,0.054465,0.053031,0.05171,0.050542,0.049491,0.048561,0.047757,0.047037,0.046427,0.045882,0.045396,0.044976,0.044591,0.044232,0.043901,0.043588,0.043272,0.042956,0.042619,0.042269,0.041891,0.041479,0.041046,0.040582,0.040108,0.039634,0.039161,0.038718,0.038316,0.037953,0.037653,0.03742,0.037275,0.037204,0.037236,0.037358,0.037602,0.037949,0.038422,0.039036,0.039786,0.040669,0.041715,0.042917,0.044293,0.045817,0.047504,0.049423,0.051472,0.053704,0.056088,0.058607,0.061296,0.064067,0.066913,0.069914,0.07293,0.076012,0.079088,0.08214,0.085218,0.088173,0.091048,0.093842,0.096491,0.099063,0.10151,0.10387,0.10622,0.1085,0.11079,0.11313,0.11558,0.11825,0.12116,0.12437,0.12804,0.13203,0.1365,0.14136,0.14661,0.15252,0.15884,0.16571,0.17311,0.18094,0.18934,0.19797,0.20683,0.21608,0.22525,0.23448,0.24356,0.25238,0.26109,0.26928,0.27703,0.28433,0.29096,0.29712,0.30251,0.30731,0.31154,0.31516,0.31828,0.32092,0.32315,0.32505,0.32663,0.32796,0.32907,0.32996,0.33072,0.33131,0.33176,0.33207,0.33222,0.33222,0.33203,0.33172,0.33126,0.33068,0.32997,0.32919,0.32834,0.32741,0.32643,0.32537,0.32428,0.32312,0.32188,0.32062,0.3193,0.31789,0.31658,0.31515,0.31374,0.31232,0.31087,0.30946,0.30805,0.30668,0.30536,0.30406,0.30287,0.30174,0.30064,0.29958,0.29863,0.29777,0.297,0.29629,0.29565,0.29506,0.29455,0.29405,0.2936,0.29317,0.29278,0.29242,0.29208,0.29174,0.29141,0.29108,0.29077,0.29042,0.29003,0.28959,0.28908,0.2885,0.28785,0.28707,0.28622,0.28525,0.28419,0.28302,0.2817,0.28028,0.27875,0.2771,0.27537,0.27349,0.27157,0.26955,0.26748,0.2654,0.26324,0.26111,0.25896,0.25682,0.2547,0.25257,0.25048,0.24843,0.2464,0.24442,0.24245,0.24053,0.23865,0.23681,0.23503,0.23326,0.23156,0.22993,0.22834,0.22683,0.22538,0.22401,0.22275,0.22161,0.22058,0.21967,0.21889,0.21826,0.21775,0.21735,0.21711,0.21703,0.21717,0.21758,0.21827,0.21936,0.22078,0.22261,0.22483,0.2274,0.23036,0.23349,0.23678,0.24001,0.24311,0.246,0.24855,0.2508,0.25258,0.25402,0.25513,0.25591,0.25651,0.25698,0.25739,0.2578,0.25822,0.25866,0.25909,0.25948,0.25981,0.26005,0.2602,0.26029,0.26039,0.26056,0.26086,0.26136,0.26199,0.26276,0.26356,0.26436,0.2651,0.26573,0.26626,0.26668,0.267,0.26726,0.26744,0.26757,0.26762,0.26765,0.26765,0.26763,0.26753,0.2673,0.26689,0.26631,0.26553,0.26456,0.26344,0.26216,0.26076,0.25926,0.25771,0.25614,0.25453,0.25297,0.25144,0.24996,0.24858,0.24727,0.24606,0.24494,0.24388,0.24288,0.24187,0.24084,0.23973,0.23857,0.23732,0.23603,0.23466,0.23323,0.23186,0.23034,0.2288,0.22726,0.22579,0.22444,0.22326,0.22231,0.22161,0.22121,0.22108,0.22124,0.22175,0.22259,0.22375,0.22529,0.2272,0.22948,0.23234,0.23567,0.23961,0.24415,0.24943,0.25551,0.26243,0.27052,0.27954,0.28976,0.30105,0.31329,0.32648,0.34026,0.35486,0.36959,0.3845,0.39913,0.41326,0.4269,0.43949,0.45141,0.46231,0.47232,0.48132,0.48933,0.49646,0.50237,0.50728,0.51102,0.51357,0.51498,0.51526,0.51455,0.51284,0.51035,0.50722,0.50361,0.49964,0.49547,0.49114,0.48675,0.48229,0.47786,0.47344,0.46911,0.46485,0.46059,0.45645,0.45228,0.44822,0.44415,0.44012,0.43613,0.43211,0.42819,0.42425,0.42044,0.41667,0.41306,0.40958,0.40631,0.40325,0.4004,0.39787,0.39562,0.39372,0.39215,0.391,0.39023,0.38985,0.38986,0.3903,0.39113,0.39238,0.39403,0.3961,0.39854,0.40133,0.40448,0.40787,0.41159,0.41545,0.41948,0.42362,0.42788,0.43219,0.43649,0.44086,0.4451,0.44933,0.45337,0.45732,0.46106,0.46461,0.46799,0.47114,0.47417,0.47699,0.47972,0.48226,0.48469,0.48697,0.48912,0.49116,0.49308,0.49485,0.4965,0.49801,0.49938,0.50064,0.50175,0.50278,0.50362,0.50436,0.50493,0.50535,0.50565,0.50577,0.50575,0.50556,0.5052,0.5047,0.50402,0.50319,0.50222,0.50105,0.49972,0.4982,0.49651,0.49468,0.49281,0.49087,0.48892,0.487,0.48506,0.48309,0.48104,0.47896,0.47676,0.47453,0.47224,0.46996,0.46762,0.46532,0.46301,0.46069,0.45837,0.45608,0.45379,0.45142,0.44906,0.44659,0.44414,0.44165,0.4392,0.43675,0.43434,0.43193,0.42956,0.4273,0.42504,0.42287,0.4207,0.41861,0.41652,0.41449,0.41248,0.41054,0.40862,0.40682,0.40509,0.40345,0.40196,0.40062,0.39943,0.39848,0.39781,0.39745,0.39743,0.39786,0.39869,0.40002,0.40181,0.40416,0.40703,0.41046,0.41439,0.41893,0.42389,0.42934,0.4351,0.44123,0.4475,0.45385,0.46019,0.46654,0.47275,0.47896,0.4851,0.4913,0.49758,0.50386,0.51006,0.51576,0.52082,0.52474,0.52736,0.52878,0.52922,0.52899,0.52868,0.52864,0.52916,0.53032,0.53215,0.53446,0.537,0.53941,0.54143,0.54287,0.54364,0.54391,0.5438,0.54347,0.54307,0.54252,0.54188,0.54107,0.54021,0.53923,0.53831,0.53745,0.53677,0.53624,0.53585,0.53549,0.53495,0.53418,0.53303,0.53158,0.52999,0.52847,0.52724,0.52634,0.52584,0.52558,0.5255,0.5255,0.52553,0.52547,0.52542,0.52524,0.52506,0.52481,0.52454,0.52438,0.52431,0.52447,0.5248,0.52539,0.52625,0.52744,0.52895,0.53087,0.53309,0.53562,0.53855,0.54165,0.54497,0.54835,0.55189,0.55548,0.55911,0.56273,0.56641,0.56999,0.57358,0.57723,0.58091,0.58466,0.58862,0.59262,0.59685,0.60106,0.60538,0.6096,0.61389,0.61805,0.6222,0.6261,0.63001,0.63371,0.6374,0.64099,0.64454,0.64798,0.6513,0.65454,0.65764,0.66063,0.66336,0.66594,0.66814,0.6702,0.67195,0.67345,0.67469,0.67567,0.67634,0.67668,0.67678,0.67658,0.67625,0.67568
-0.0074092,-0.0075279,-0.0076355,-0.0076866,-0.0076739,-0.007629,-0.0074923,-0.0072624,-0.0069004,-0.0063908,-0.0056999,-0.0048287,-0.0036825,-0.0022393,-0.0004779,0.0016305,0.0040838,0.0068756,0.010074,0.01351,0.017221,0.021219,0.025396,0.029762,0.034176,0.038666,0.04323,0.047663,0.052008,0.05629,0.060387,0.064298,0.067983,0.071455,0.074823,0.077975,0.081013,0.084021,0.08697,0.089909,0.092836,0.095697,0.098549,0.10122,0.10374,0.10607,0.1081,0.10983,0.11129,0.11239,0.11319,0.11363,0.11376,0.1135,0.11291,0.11192,0.11059,0.10892,0.10693,0.10472,0.10237,0.099857,0.097352,0.094879,0.092463,0.090185,0.087997,0.086015,0.084183,0.082507,0.081019,0.079683,0.078496,0.077469,0.076541,0.075752,0.075046,0.074419,0.073867,0.073364,0.072893,0.072458,0.072041,0.071626,0.071207,0.07077,0.070319,0.069825,0.069303,0.068755,0.06817,0.067573,0.066976,0.066383,0.065825,0.065332,0.064883,0.064521,0.064231,0.06406,0.063987,0.064039,0.064205,0.064523,0.064977,0.065579,0.066361,0.067301,0.068424,0.069752,0.071266,0.073005,0.074937,0.077064,0.079472,0.082038,0.084831,0.087808,0.090952,0.094301,0.09775,0.10129,0.10501,0.10873,0.11253,0.11632,0.12008,0.12387,0.12751,0.13104,0.13449,0.13776,0.14094,0.14397,0.14688,0.14979,0.1526,0.15539,0.15823,0.16127,0.16456,0.16817,0.17215,0.17669,0.18161,0.18709,0.19303,0.19949,0.20663,0.21424,0.22246,0.23129,0.2406,0.25054,0.2607,0.27109,0.28186,0.29249,0.30313,0.31355,0.32361,0.33351,0.34277,0.3515,0.35972,0.36716,0.37407,0.38007,0.38541,0.39009,0.39409,0.39751,0.4004,0.40281,0.40487,0.40658,0.40801,0.40922,0.4102,0.41103,0.41168,0.41218,0.4125,0.41265,0.41263,0.41242,0.41205,0.41151,0.41085,0.41006,0.40918,0.40824,0.40716,0.40604,0.40487,0.40366,0.40236,0.40099,0.39957,0.39811,0.39657,0.3951,0.39348,0.39187,0.39026,0.38863,0.38702,0.38542,0.38387,0.38239,0.38091,0.37951,0.37822,0.37695,0.37575,0.37468,0.3737,0.37283,0.37201,0.3713,0.37062,0.37004,0.36949,0.36898,0.36851,0.36809,0.36768,0.3673,0.36692,0.36655,0.36617,0.36581,0.36541,0.36497,0.36448,0.3639,0.36326,0.36253,0.36168,0.36072,0.35967,0.35848,0.35719,0.35573,0.35417,0.35247,0.35065,0.34873,0.34665,0.34452,0.34229,0.34001,0.3377,0.33531,0.33294,0.33054,0.32815,0.32581,0.32343,0.32111,0.31881,0.31655,0.31433,0.31212,0.30999,0.30787,0.3058,0.30381,0.30184,0.29995,0.29813,0.29636,0.29468,0.29308,0.29158,0.29021,0.28896,0.28785,0.28689,0.2861,0.28544,0.28494,0.28458,0.28437,0.28433,0.28456,0.28507,0.28592,0.28723,0.28892,0.2911,0.2937,0.29672,0.30019,0.30388,0.30776,0.31158,0.31526,0.31875,0.32189,0.32472,0.32705,0.32898,0.33053,0.33168,0.33261,0.33336,0.33403,0.33466,0.33527,0.33586,0.33641,0.33686,0.3372,0.33735,0.33734,0.3372,0.33704,0.33699,0.3371,0.33748,0.33808,0.33889,0.33981,0.34076,0.34168,0.34252,0.34325,0.34386,0.34435,0.34473,0.34497,0.34509,0.34511,0.34504,0.34494,0.3448,0.34457,0.34423,0.34371,0.34299,0.34207,0.34096,0.33969,0.33825,0.33666,0.33498,0.33325,0.33147,0.32965,0.32787,0.32611,0.32443,0.32285,0.32133,0.31996,0.31865,0.31743,0.31626,0.31507,0.31387,0.3126,0.31125,0.3098,0.3083,0.30674,0.3051,0.30352,0.30178,0.30004,0.2983,0.29661,0.29508,0.29375,0.29266,0.29185,0.2914,0.29124,0.29145,0.29204,0.293,0.29434,0.29612,0.29833,0.30098,0.30429,0.30816,0.31272,0.31798,0.32404,0.33102,0.33891,0.34814,0.35839,0.3699,0.38254,0.3962,0.41084,0.42612,0.44217,0.45831,0.47456,0.49045,0.50568,0.5203,0.53376,0.54643,0.55798,0.56851,0.57796,0.58634,0.59376,0.59988,0.60495,0.60883,0.61149,0.61292,0.61321,0.6125,0.61078,0.60823,0.60506,0.60134,0.59726,0.59298,0.58849,0.58395,0.57933,0.57473,0.57012,0.56556,0.56108,0.5566,0.55225,0.54783,0.5435,0.53918,0.5349,0.53064,0.52637,0.52218,0.51797,0.51393,0.50991,0.50605,0.50233,0.49884,0.49555,0.49249,0.48977,0.48735,0.48532,0.48361,0.48235,0.48151,0.48105,0.48102,0.48142,0.48228,0.48357,0.48527,0.48744,0.48999,0.49291,0.49622,0.49978,0.50368,0.50772,0.51199,0.51637,0.52082,0.52535,0.52991,0.53449,0.53896,0.54342,0.54764,0.55179,0.5557,0.55944,0.56291,0.56618,0.56934,0.57221,0.57505,0.57765,0.58014,0.58247,0.58466,0.5867,0.58861,0.59035,0.59198,0.59347,0.5948,0.59603,0.59712,0.59811,0.59895,0.59968,0.60025,0.60065,0.60091,0.60097,0.6009,0.60069,0.60033,0.59977,0.5991,0.59822,0.59716,0.59594,0.59454,0.59289,0.59109,0.58913,0.58716,0.58513,0.58312,0.58115,0.57918,0.57721,0.57512,0.57299,0.5707,0.56836,0.56592,0.56348,0.56102,0.55854,0.55608,0.55362,0.55119,0.54876,0.54632,0.54381,0.54124,0.53867,0.53605,0.53341,0.53084,0.52823,0.52571,0.52318,0.5207,0.51827,0.51593,0.51362,0.51135,0.50912,0.50693,0.50478,0.5026,0.50057,0.49858,0.49667,0.49485,0.49317,0.49162,0.49026,0.48909,0.48821,0.48762,0.48737,0.48754,0.48819,0.48927,0.49092,0.49307,0.49584,0.49913,0.50308,0.5075,0.51255,0.51802,0.52397,0.53018,0.53672,0.54337,0.55015,0.55686,0.56354,0.57012,0.57671,0.58325,0.58974,0.59628,0.60281,0.60918,0.61511,0.62036,0.62451,0.62745,0.62922,0.62999,0.63022,0.63044,0.63098,0.63207,0.63378,0.63621,0.63904,0.64204,0.64468,0.64673,0.64792,0.64836,0.64806,0.64746,0.64679,0.64609,0.64546,0.64474,0.64394,0.64307,0.64225,0.64148,0.64085,0.64042,0.64028,0.64032,0.64033,0.64019,0.63959,0.63843,0.6368,0.63489,0.633,0.63144,0.63034,0.62965,0.62938,0.62927,0.62932,0.62938,0.6294,0.62934,0.62921,0.62901,0.62879,0.62852,0.6284,0.62836,0.62846,0.62875,0.62932,0.63015,0.63135,0.63285,0.63478,0.63701,0.6396,0.64251,0.64559,0.64884,0.65229,0.65581,0.65937,0.66294,0.6665,0.67016,0.67374,0.67729,0.68093,0.68455,0.68828,0.69223,0.69617,0.70034,0.70453,0.70886,0.71309,0.71744,0.72161,0.72578,0.72972,0.73361,0.73732,0.74106,0.74469,0.74817,0.75159,0.75489,0.75806,0.76125,0.76429,0.76699,0.76961,0.77188,0.77401,0.7758,0.77731,0.7785,0.77955,0.78016,0.78054,0.78061,0.7804,0.77994,0.77938
-0.010314,-0.010435,-0.010534,-0.010587,-0.010582,-0.010547,-0.01042,-0.010212,-0.0098777,-0.0094212,-0.0087701,-0.0079456,-0.0068642,-0.005501,-0.0038114,-0.0017866,0.0005686,0.0032651,0.0063541,0.0096918,0.013309,0.017205,0.021274,0.025525,0.029824,0.034197,0.038647,0.042967,0.047189,0.051358,0.055357,0.059179,0.06279,0.066211,0.069526,0.072642,0.075648,0.078641,0.081565,0.084489,0.08739,0.09023,0.093055,0.095703,0.098205,0.10051,0.10254,0.10427,0.10572,0.10682,0.10763,0.10806,0.10819,0.10794,0.10735,0.10638,0.10509,0.10345,0.10151,0.099358,0.097056,0.094625,0.092192,0.089786,0.087437,0.085226,0.083108,0.081178,0.079408,0.077783,0.076342,0.075055,0.073913,0.072932,0.072051,0.071299,0.070634,0.07004,0.069513,0.069047,0.068609,0.068196,0.067796,0.067401,0.066998,0.066574,0.066134,0.065657,0.065144,0.06461,0.064037,0.063462,0.062881,0.062306,0.061768,0.061282,0.060849,0.060492,0.060215,0.060042,0.059964,0.060013,0.06017,0.060475,0.060913,0.061501,0.062261,0.063185,0.064285,0.065575,0.067055,0.068751,0.070637,0.072716,0.075069,0.077583,0.080304,0.083214,0.086285,0.089561,0.092923,0.096373,0.1,0.10364,0.10734,0.11104,0.1147,0.1184,0.12195,0.1254,0.12876,0.13195,0.13505,0.138,0.14086,0.14371,0.14646,0.14923,0.15205,0.15496,0.15817,0.16168,0.16554,0.16996,0.17474,0.1801,0.18592,0.19224,0.19926,0.20671,0.21479,0.22349,0.23266,0.24245,0.25249,0.26276,0.27345,0.28402,0.29463,0.30502,0.3151,0.325,0.3343,0.34307,0.35134,0.35884,0.36581,0.37186,0.37727,0.38202,0.38604,0.38951,0.39241,0.39485,0.39694,0.39868,0.40013,0.40135,0.40234,0.40318,0.40382,0.40432,0.40466,0.40482,0.40483,0.40463,0.40429,0.40376,0.4031,0.40233,0.40144,0.40049,0.39945,0.39829,0.39708,0.39585,0.39453,0.39315,0.39174,0.39025,0.38872,0.38727,0.38566,0.38409,0.38254,0.38095,0.37939,0.37784,0.37636,0.37492,0.37351,0.37219,0.37094,0.36976,0.36862,0.36761,0.36669,0.36587,0.36513,0.36444,0.36381,0.36327,0.36276,0.36231,0.36189,0.36149,0.36111,0.36075,0.36039,0.36006,0.35971,0.35938,0.359,0.35858,0.35809,0.35753,0.35688,0.35617,0.35531,0.35437,0.3533,0.35211,0.35081,0.34934,0.34778,0.34606,0.34423,0.34229,0.3402,0.33804,0.33579,0.33348,0.33115,0.32874,0.32635,0.32393,0.32153,0.31915,0.31674,0.31439,0.31207,0.30977,0.30752,0.30529,0.30312,0.30099,0.2989,0.29687,0.29487,0.29294,0.29107,0.28926,0.28755,0.28589,0.28434,0.2829,0.28158,0.2804,0.27934,0.27845,0.2777,0.2771,0.27664,0.27633,0.27621,0.27634,0.27678,0.27756,0.27879,0.28042,0.28255,0.28513,0.28812,0.29159,0.29527,0.29914,0.30294,0.30662,0.3101,0.31319,0.31597,0.31825,0.32011,0.32159,0.32267,0.32352,0.3242,0.32479,0.32535,0.3259,0.32646,0.327,0.32746,0.32782,0.32804,0.3281,0.32806,0.32801,0.32807,0.32829,0.32877,0.32945,0.33034,0.33132,0.33232,0.33327,0.33413,0.33488,0.33551,0.336,0.33638,0.33663,0.33679,0.33684,0.33683,0.33678,0.3367,0.33652,0.33623,0.33574,0.33504,0.33413,0.33302,0.33174,0.33027,0.32866,0.32696,0.32518,0.32338,0.32153,0.31973,0.31796,0.31627,0.31467,0.31316,0.31177,0.31045,0.30924,0.30806,0.30688,0.30569,0.30441,0.30307,0.30163,0.30013,0.29856,0.29692,0.29533,0.29357,0.29182,0.29007,0.28838,0.28686,0.2855,0.28441,0.28359,0.28313,0.28297,0.28316,0.28373,0.28467,0.28599,0.28775,0.28994,0.29258,0.29587,0.2997,0.30423,0.30946,0.31551,0.32245,0.33036,0.33954,0.34978,0.3613,0.37397,0.38765,0.40234,0.41769,0.43385,0.45014,0.46658,0.48262,0.49807,0.51293,0.52661,0.53955,0.55132,0.5621,0.57176,0.58037,0.588,0.59435,0.59962,0.60366,0.60641,0.60796,0.60833,0.60759,0.60586,0.60325,0.60002,0.59622,0.59204,0.58766,0.58306,0.57844,0.57367,0.56897,0.56428,0.55963,0.55506,0.55051,0.54605,0.54151,0.53711,0.53268,0.52831,0.52397,0.51962,0.51538,0.51111,0.50698,0.50291,0.49898,0.49523,0.49166,0.48835,0.48526,0.48254,0.48012,0.47808,0.47639,0.47515,0.47432,0.47391,0.47393,0.47438,0.47527,0.47662,0.4784,0.48065,0.48331,0.48634,0.48978,0.49345,0.49749,0.50165,0.50605,0.51057,0.51518,0.51985,0.52453,0.52927,0.53387,0.53848,0.54289,0.54719,0.55124,0.55511,0.55876,0.56218,0.56545,0.56852,0.57144,0.57419,0.57681,0.57928,0.58158,0.58374,0.58575,0.58764,0.58936,0.59098,0.59235,0.59367,0.59483,0.59589,0.5968,0.59755,0.59816,0.59858,0.59889,0.59901,0.59895,0.5987,0.59835,0.59781,0.59708,0.59622,0.59514,0.59387,0.59242,0.59072,0.5889,0.58689,0.58483,0.58272,0.58065,0.57857,0.57655,0.5745,0.57233,0.57011,0.56779,0.56536,0.56283,0.56032,0.55775,0.55523,0.55269,0.55018,0.54762,0.5451,0.54256,0.53995,0.53733,0.53464,0.53197,0.52926,0.52658,0.52392,0.52131,0.51873,0.51616,0.51368,0.51127,0.50892,0.50659,0.50432,0.50207,0.49984,0.49769,0.49556,0.49349,0.49151,0.48964,0.4879,0.48629,0.48485,0.48359,0.4826,0.48192,0.4816,0.48167,0.48217,0.4832,0.48474,0.48682,0.48953,0.49276,0.49667,0.50113,0.50622,0.51177,0.51784,0.52426,0.53104,0.53789,0.5449,0.55189,0.55889,0.56579,0.57264,0.57949,0.58635,0.59324,0.6001,0.60685,0.61309,0.61866,0.62303,0.62615,0.62796,0.62879,0.62894,0.62902,0.62945,0.63052,0.63221,0.63465,0.63755,0.64059,0.64335,0.6454,0.64663,0.64707,0.64687,0.64628,0.64554,0.64483,0.64405,0.64326,0.64239,0.64147,0.6405,0.6396,0.63888,0.63846,0.63819,0.63816,0.63812,0.6379,0.63727,0.63604,0.63434,0.63241,0.63048,0.62892,0.62781,0.62721,0.62691,0.62688,0.62692,0.62696,0.627,0.62694,0.62685,0.62669,0.62643,0.62619,0.62606,0.62598,0.62613,0.62652,0.62714,0.62806,0.62934,0.63101,0.63305,0.63548,0.63829,0.64136,0.64461,0.64804,0.65164,0.65541,0.65903,0.66289,0.66665,0.67037,0.67413,0.67793,0.68163,0.68539,0.68937,0.69338,0.69744,0.70183,0.70614,0.71063,0.71512,0.71958,0.72383,0.72811,0.73223,0.7361,0.74006,0.74378,0.74748,0.75103,0.75458,0.75795,0.76128,0.76443,0.76746,0.77029,0.77291,0.77531,0.77741,0.77919,0.78082,0.78207,0.78312,0.78378,0.78412,0.78418,0.78393,0.78345,0.78275
-0.020386,-0.020471,-0.020553,-0.020604,-0.020598,-0.020562,-0.020466,-0.020303,-0.020017,-0.019636,-0.019076,-0.018393,-0.017486,-0.016351,-0.01496,-0.013283,-0.011329,-0.00911,-0.0065581,-0.0038084,-0.0008318,0.0023815,0.0057462,0.0092566,0.012818,0.016431,0.020112,0.023681,0.027178,0.030618,0.033916,0.037055,0.040009,0.042803,0.045514,0.048059,0.050507,0.052943,0.055334,0.057722,0.060097,0.062417,0.064733,0.066925,0.069,0.070922,0.07261,0.07406,0.075295,0.076231,0.076929,0.077317,0.077461,0.077288,0.076833,0.076067,0.075025,0.073703,0.072128,0.070383,0.068517,0.066539,0.064559,0.062603,0.060689,0.058885,0.05715,0.05558,0.054135,0.052806,0.051642,0.050589,0.04966,0.048865,0.048146,0.04754,0.046997,0.046514,0.046086,0.045695,0.045323,0.044979,0.044648,0.044308,0.043966,0.043606,0.043235,0.042831,0.0424,0.041948,0.041467,0.040988,0.040503,0.040034,0.039587,0.039191,0.038828,0.038533,0.038298,0.038157,0.038091,0.038122,0.03825,0.038494,0.038848,0.039326,0.039947,0.040695,0.04159,0.042643,0.043854,0.045247,0.046789,0.048496,0.050426,0.052491,0.054732,0.057121,0.059642,0.062328,0.065098,0.06793,0.070914,0.07391,0.076955,0.080005,0.083015,0.086062,0.088984,0.091814,0.094584,0.097212,0.099766,0.10219,0.10453,0.10687,0.10913,0.11139,0.1137,0.11613,0.11876,0.12163,0.12481,0.12845,0.1324,0.13686,0.1417,0.14693,0.15283,0.15914,0.166,0.17339,0.18125,0.18965,0.1983,0.2072,0.21649,0.22571,0.23501,0.24416,0.25307,0.26186,0.27015,0.27801,0.28543,0.2922,0.29851,0.304,0.30889,0.31318,0.31682,0.31993,0.32253,0.32471,0.32657,0.32812,0.3294,0.33047,0.33136,0.3321,0.33268,0.33312,0.3334,0.33354,0.33351,0.33331,0.33297,0.33246,0.33183,0.33107,0.33022,0.32931,0.3283,0.32722,0.32609,0.32488,0.32365,0.32236,0.32102,0.31963,0.31815,0.31678,0.31528,0.31383,0.31237,0.31089,0.30944,0.30802,0.30664,0.30532,0.30401,0.30283,0.30172,0.30063,0.29957,0.29865,0.29781,0.29708,0.29639,0.29578,0.29522,0.29474,0.29428,0.29388,0.29349,0.29313,0.29282,0.2925,0.29219,0.29189,0.29158,0.29127,0.29094,0.29055,0.29011,0.2896,0.28902,0.28838,0.28762,0.28677,0.28582,0.28476,0.2836,0.28228,0.28088,0.27935,0.2777,0.27598,0.27411,0.27219,0.27019,0.26814,0.26605,0.26391,0.26177,0.25962,0.25748,0.25536,0.25322,0.25113,0.24905,0.24702,0.24504,0.24305,0.24114,0.23926,0.23741,0.23562,0.23386,0.23216,0.23052,0.22893,0.22743,0.22598,0.2246,0.22334,0.22217,0.22112,0.22019,0.21939,0.21871,0.21814,0.21769,0.21737,0.21719,0.21723,0.21753,0.21811,0.21907,0.22036,0.22208,0.22419,0.22667,0.22953,0.2326,0.23583,0.23902,0.24211,0.24504,0.24765,0.24998,0.25187,0.25342,0.25464,0.25551,0.25621,0.25673,0.25719,0.25762,0.25805,0.25847,0.25888,0.25921,0.25947,0.25962,0.25966,0.25963,0.25963,0.25973,0.25999,0.26047,0.26112,0.26192,0.26282,0.26371,0.26457,0.26532,0.26598,0.26652,0.26695,0.26729,0.26753,0.26771,0.26781,0.26785,0.26787,0.26784,0.26773,0.2675,0.2671,0.2665,0.26572,0.26473,0.26359,0.26228,0.26085,0.25933,0.25775,0.25615,0.25451,0.25291,0.25133,0.24983,0.2484,0.24706,0.24583,0.24466,0.2436,0.24255,0.24153,0.24047,0.23935,0.23817,0.23691,0.2356,0.23422,0.23275,0.23136,0.22981,0.22826,0.22673,0.22524,0.2239,0.22272,0.22176,0.22105,0.22064,0.2205,0.22066,0.22116,0.22198,0.22313,0.22464,0.22651,0.22877,0.23159,0.23491,0.23882,0.24337,0.24863,0.25469,0.26159,0.26966,0.27864,0.28885,0.30013,0.31238,0.32561,0.33949,0.35421,0.3691,0.38419,0.39902,0.41337,0.4272,0.44003,0.45219,0.46331,0.47349,0.48269,0.49087,0.49813,0.50419,0.50919,0.51302,0.51562,0.51703,0.51733,0.51658,0.51482,0.51223,0.50902,0.5053,0.50124,0.49692,0.49243,0.48792,0.48329,0.47872,0.47413,0.46963,0.46518,0.46072,0.45636,0.45197,0.44766,0.4434,0.43917,0.43499,0.43082,0.42676,0.42272,0.41881,0.41497,0.4113,0.40778,0.40446,0.4014,0.39854,0.39601,0.39377,0.39187,0.39035,0.38925,0.38852,0.38818,0.38821,0.38869,0.38954,0.39083,0.39252,0.3946,0.39709,0.39988,0.40308,0.40653,0.41028,0.41416,0.41822,0.42241,0.42669,0.43109,0.43546,0.43989,0.44425,0.44859,0.45276,0.45687,0.46078,0.46454,0.46815,0.47154,0.47484,0.47793,0.48096,0.4838,0.48648,0.48903,0.4914,0.49363,0.49568,0.49762,0.49933,0.50091,0.50232,0.50365,0.50482,0.50582,0.50669,0.50744,0.508,0.50842,0.50866,0.5087,0.50859,0.50831,0.50791,0.50731,0.50659,0.50568,0.5046,0.50333,0.50187,0.50018,0.4984,0.49639,0.49435,0.49222,0.49009,0.48794,0.48581,0.48365,0.48142,0.47912,0.4767,0.47424,0.47164,0.46909,0.46648,0.4639,0.46128,0.45875,0.45618,0.45363,0.45115,0.44859,0.44602,0.44342,0.44086,0.43824,0.43569,0.43314,0.43068,0.42822,0.42582,0.42346,0.42117,0.41896,0.41673,0.41461,0.41248,0.41042,0.40839,0.40644,0.40455,0.40277,0.40106,0.39948,0.39803,0.39677,0.39566,0.3948,0.39421,0.39393,0.39403,0.39453,0.39546,0.39689,0.39876,0.40126,0.40421,0.40779,0.41186,0.41655,0.42165,0.42723,0.43308,0.43929,0.44563,0.45212,0.45856,0.46502,0.47144,0.47776,0.48412,0.49051,0.49702,0.50348,0.50989,0.5158,0.521,0.52508,0.52787,0.52933,0.5298,0.52966,0.52945,0.52948,0.53011,0.53145,0.53346,0.53596,0.53871,0.54129,0.54344,0.54488,0.54567,0.54591,0.54576,0.54545,0.54501,0.54444,0.54375,0.54292,0.54199,0.54094,0.53998,0.53912,0.53841,0.53787,0.53753,0.5372,0.53671,0.5359,0.53471,0.53317,0.53147,0.52987,0.52856,0.52767,0.52714,0.52692,0.52692,0.52698,0.52705,0.52707,0.52697,0.5269,0.52672,0.52645,0.5262,0.52608,0.52599,0.52614,0.52648,0.52712,0.52797,0.52923,0.53087,0.53283,0.53515,0.53785,0.5409,0.54416,0.54763,0.55124,0.5549,0.55863,0.5624,0.56613,0.56994,0.57361,0.57736,0.58111,0.58493,0.58884,0.59284,0.59696,0.60125,0.60557,0.60996,0.6143,0.61874,0.62298,0.6272,0.63123,0.63521,0.63902,0.64282,0.64654,0.65009,0.65363,0.65708,0.66038,0.66366,0.66679,0.66968,0.67239,0.67484,0.67702,0.67887,0.68048,0.68178,0.68278,0.68351,0.68391,0.68392,0.68377,0.68331,0.68274
-0.019605,-0.019695,-0.019776,-0.019823,-0.01982,-0.019779,-0.01968,-0.019489,-0.019193,-0.018785,-0.018194,-0.017464,-0.016504,-0.015302,-0.013823,-0.012046,-0.0099743,-0.0076111,-0.0049042,-0.0019878,0.0011787,0.0045921,0.0081536,0.011885,0.015652,0.019484,0.023393,0.027172,0.03087,0.034517,0.038003,0.041322,0.044447,0.047391,0.050248,0.052926,0.055502,0.058059,0.060572,0.063074,0.065565,0.068007,0.070439,0.072738,0.074914,0.07693,0.078708,0.080231,0.081527,0.082514,0.083255,0.083671,0.083824,0.083653,0.083189,0.082397,0.08131,0.079936,0.078287,0.076461,0.074501,0.072423,0.070339,0.068276,0.066261,0.064361,0.062538,0.060882,0.059357,0.057957,0.056721,0.055612,0.05463,0.05379,0.053034,0.052388,0.051812,0.051301,0.050849,0.050434,0.050044,0.049683,0.049331,0.04898,0.04862,0.048246,0.047854,0.047436,0.046986,0.046513,0.046012,0.045508,0.04501,0.044505,0.044039,0.043615,0.043237,0.042933,0.042689,0.042542,0.042477,0.042518,0.042659,0.042918,0.043296,0.043802,0.044457,0.045254,0.0462,0.047314,0.048596,0.050068,0.051704,0.053506,0.055548,0.057721,0.060081,0.062599,0.065252,0.068075,0.070981,0.073955,0.077089,0.080223,0.083406,0.086584,0.089727,0.092903,0.09595,0.098908,0.1018,0.10453,0.10719,0.10972,0.11218,0.11462,0.11698,0.11934,0.12175,0.12427,0.127,0.12999,0.13327,0.13705,0.14115,0.14571,0.15066,0.1561,0.16216,0.16862,0.17563,0.18319,0.1912,0.19973,0.20854,0.21757,0.22697,0.23629,0.24568,0.25491,0.26385,0.2727,0.28102,0.2889,0.29634,0.3031,0.30941,0.3149,0.31979,0.32407,0.3277,0.3308,0.33337,0.33554,0.33739,0.33892,0.34021,0.3413,0.34218,0.34293,0.34352,0.34397,0.34426,0.34439,0.34437,0.34417,0.34384,0.34333,0.3427,0.34196,0.3411,0.34019,0.33918,0.33812,0.33698,0.33582,0.33457,0.33328,0.33196,0.33053,0.32912,0.32779,0.32632,0.32487,0.32343,0.32196,0.32054,0.31914,0.31779,0.31648,0.3152,0.31401,0.31288,0.31183,0.31081,0.3099,0.30908,0.30835,0.30769,0.30708,0.30652,0.30604,0.30559,0.30519,0.3048,0.30445,0.30412,0.30381,0.30349,0.3032,0.30289,0.30257,0.30223,0.30183,0.3014,0.3009,0.30033,0.29968,0.29891,0.29807,0.2971,0.29605,0.29488,0.29357,0.29216,0.29062,0.28897,0.28724,0.28535,0.28342,0.28141,0.27935,0.27726,0.2751,0.27296,0.27079,0.26863,0.2665,0.26435,0.26225,0.26016,0.25811,0.25611,0.25411,0.25218,0.25028,0.24842,0.24661,0.24483,0.24311,0.24146,0.23987,0.23835,0.23688,0.23551,0.23424,0.23308,0.23203,0.23111,0.23031,0.22965,0.22909,0.22865,0.22834,0.22817,0.22823,0.22854,0.22913,0.23013,0.23146,0.23322,0.23537,0.23789,0.24081,0.24392,0.24722,0.25046,0.25361,0.25659,0.25927,0.26167,0.26364,0.26525,0.26652,0.26746,0.2682,0.26877,0.26927,0.26974,0.27019,0.27063,0.27105,0.27138,0.27164,0.27176,0.27177,0.27171,0.27165,0.2717,0.27191,0.27234,0.27296,0.27376,0.27464,0.27555,0.27642,0.27719,0.27787,0.27843,0.2789,0.27927,0.27953,0.2797,0.27978,0.2798,0.27979,0.27975,0.27962,0.27937,0.27896,0.27835,0.27754,0.27656,0.27542,0.27413,0.2727,0.27119,0.26961,0.268,0.26637,0.26476,0.26319,0.26169,0.26026,0.25892,0.25769,0.25651,0.25543,0.25439,0.25335,0.25229,0.25116,0.24997,0.2487,0.24737,0.24597,0.2445,0.24311,0.24156,0.24,0.23845,0.23696,0.23561,0.23443,0.23348,0.23276,0.23234,0.23221,0.23237,0.23287,0.2337,0.23487,0.23637,0.23827,0.24055,0.24339,0.24674,0.2507,0.25528,0.26061,0.26674,0.27366,0.28176,0.29084,0.30107,0.31238,0.32464,0.33786,0.35174,0.36639,0.38122,0.39623,0.41097,0.42519,0.43892,0.45163,0.46366,0.47463,0.48473,0.4938,0.50186,0.50902,0.51496,0.51991,0.52369,0.52625,0.52761,0.52789,0.52713,0.52538,0.5228,0.51964,0.51593,0.51189,0.50762,0.50321,0.49877,0.49421,0.48968,0.48515,0.4807,0.47629,0.47188,0.46758,0.46325,0.45897,0.45473,0.45056,0.44641,0.44231,0.4383,0.43429,0.43044,0.42664,0.423,0.41953,0.41624,0.41321,0.41036,0.40787,0.40564,0.4038,0.40228,0.40118,0.40048,0.40014,0.40019,0.40065,0.40147,0.40275,0.40439,0.40647,0.40895,0.41174,0.41491,0.41827,0.42199,0.42584,0.4299,0.43406,0.4383,0.44266,0.44702,0.45141,0.45572,0.46003,0.46418,0.46822,0.4721,0.47582,0.47939,0.48275,0.48603,0.48908,0.49208,0.49487,0.49753,0.50003,0.50238,0.50453,0.50653,0.50842,0.51015,0.51172,0.51311,0.51439,0.51553,0.51656,0.51741,0.51812,0.51867,0.51908,0.51928,0.51934,0.51921,0.51895,0.51854,0.51797,0.51722,0.51633,0.51526,0.514,0.51255,0.51091,0.5091,0.50716,0.5051,0.50303,0.50091,0.49882,0.49671,0.49459,0.4924,0.49013,0.48775,0.48535,0.48281,0.48027,0.4777,0.47512,0.47254,0.47003,0.46753,0.46501,0.46252,0.45998,0.45747,0.4549,0.45235,0.44979,0.44728,0.44477,0.44232,0.4399,0.43755,0.43525,0.433,0.43081,0.42865,0.42655,0.42448,0.42248,0.42047,0.41858,0.41669,0.41494,0.41328,0.41173,0.41029,0.40906,0.40799,0.40715,0.4066,0.40634,0.40644,0.40699,0.40798,0.40941,0.41134,0.41378,0.41678,0.42038,0.42448,0.42916,0.43422,0.43972,0.44557,0.45171,0.45795,0.46436,0.47069,0.47709,0.48338,0.48967,0.49593,0.50222,0.5086,0.51495,0.5212,0.52706,0.5322,0.53616,0.53896,0.54038,0.54089,0.54081,0.54062,0.54074,0.5414,0.54279,0.54482,0.54735,0.55007,0.55267,0.5548,0.55624,0.55698,0.55717,0.55696,0.55658,0.55614,0.55559,0.55493,0.55413,0.5532,0.55223,0.5513,0.55047,0.54983,0.54939,0.54909,0.54882,0.54835,0.54758,0.5464,0.54488,0.54319,0.54158,0.54028,0.53936,0.53888,0.53865,0.53865,0.53867,0.53871,0.53871,0.53867,0.53856,0.53841,0.53815,0.53795,0.53779,0.53775,0.53787,0.53819,0.5388,0.53966,0.54086,0.54242,0.54439,0.54672,0.54939,0.55234,0.55553,0.55895,0.56245,0.56606,0.56971,0.57345,0.57708,0.58076,0.58444,0.58813,0.59181,0.59555,0.59938,0.60337,0.60737,0.61161,0.61577,0.62009,0.6244,0.62879,0.633,0.63722,0.64118,0.64503,0.6489,0.65266,0.6563,0.65988,0.6634,0.66678,0.67012,0.67328,0.67638,0.67924,0.68192,0.68425,0.68646,0.68831,0.68997,0.69134,0.69225,0.6929,0.69332,0.69342,0.69324,0.69284,0.69231
-0.0074704,-0.0075504,-0.0076188,-0.0076665,-0.0076179,-0.0075606,-0.0074225,-0.0071938,-0.0068314,-0.0063353,-0.0056432,-0.0047887,-0.0036552,-0.0022417,-0.0005,0.0015819,0.0039897,0.0067271,0.0098649,0.013224,0.01685,0.020753,0.02482,0.02907,0.03336,0.037708,0.042136,0.046441,0.050648,0.054796,0.058773,0.062561,0.066142,0.069525,0.072803,0.075875,0.078833,0.081762,0.084616,0.08747,0.090292,0.093038,0.095764,0.098316,0.10072,0.10293,0.10486,0.10649,0.10786,0.10888,0.10962,0.11001,0.1101,0.10983,0.10923,0.10827,0.107,0.10541,0.10351,0.10142,0.099202,0.096845,0.094494,0.092166,0.089888,0.087744,0.085687,0.083817,0.082093,0.0805,0.07909,0.077826,0.076697,0.07572,0.074841,0.074087,0.07342,0.072826,0.072303,0.071822,0.07138,0.070968,0.070569,0.070181,0.06979,0.069372,0.068941,0.068472,0.067967,0.06744,0.066876,0.066308,0.06573,0.065165,0.064634,0.064157,0.063728,0.06338,0.063105,0.062951,0.062882,0.062936,0.063104,0.063414,0.06386,0.064452,0.065218,0.066137,0.067228,0.068517,0.069992,0.071688,0.073565,0.075636,0.077972,0.080467,0.083179,0.086072,0.089122,0.092366,0.095711,0.099142,0.10274,0.10634,0.11001,0.11367,0.11728,0.12093,0.12444,0.12783,0.13116,0.13431,0.13738,0.14031,0.14314,0.14597,0.14869,0.15141,0.15418,0.15707,0.16026,0.16375,0.16761,0.17203,0.17684,0.18222,0.18807,0.19442,0.20145,0.20893,0.21703,0.22575,0.23494,0.24472,0.25476,0.26503,0.2757,0.28622,0.29679,0.30712,0.31714,0.32695,0.33617,0.34483,0.353,0.36038,0.36725,0.37321,0.37852,0.38318,0.38717,0.3906,0.39349,0.39592,0.398,0.39975,0.40118,0.40241,0.40339,0.40422,0.40487,0.40535,0.40565,0.4058,0.40576,0.40554,0.40516,0.4046,0.40391,0.40309,0.40218,0.4012,0.40012,0.39896,0.39772,0.39647,0.39512,0.39373,0.3923,0.39081,0.38926,0.38778,0.38614,0.38455,0.38297,0.38134,0.37974,0.37816,0.37663,0.37515,0.3737,0.37231,0.37102,0.36979,0.36861,0.36754,0.36657,0.36571,0.36491,0.36418,0.36351,0.36293,0.36239,0.36188,0.36141,0.36097,0.36055,0.36014,0.35976,0.35938,0.35899,0.3586,0.35818,0.35771,0.3572,0.35661,0.35595,0.35519,0.35433,0.35337,0.35228,0.35108,0.34978,0.3483,0.34673,0.34502,0.34319,0.34126,0.33917,0.33705,0.33482,0.33254,0.33024,0.32786,0.3255,0.32311,0.32074,0.31839,0.31604,0.31374,0.31145,0.3092,0.307,0.3048,0.30269,0.3006,0.29856,0.29658,0.29463,0.29276,0.29095,0.28921,0.28756,0.28598,0.28451,0.28316,0.28194,0.28086,0.27995,0.27921,0.27861,0.27815,0.27783,0.27767,0.27768,0.27792,0.27846,0.27933,0.28063,0.2823,0.28444,0.287,0.28994,0.29332,0.29691,0.30068,0.30437,0.30796,0.31134,0.31438,0.31711,0.31936,0.32122,0.3227,0.32381,0.32472,0.32546,0.32613,0.32678,0.3274,0.32801,0.32856,0.32899,0.32931,0.32946,0.32944,0.32933,0.3292,0.32918,0.32932,0.32972,0.33032,0.33112,0.33201,0.33292,0.33381,0.3346,0.33529,0.33588,0.33635,0.33671,0.33694,0.33707,0.33711,0.33709,0.33702,0.33691,0.33671,0.33641,0.33592,0.33524,0.33436,0.33332,0.3321,0.33068,0.32915,0.3275,0.3258,0.32406,0.32227,0.32052,0.31881,0.31715,0.3156,0.31412,0.31274,0.31144,0.31022,0.30905,0.30788,0.30669,0.30541,0.30407,0.30265,0.30118,0.29964,0.298,0.29644,0.29473,0.29302,0.29131,0.28966,0.2882,0.28691,0.28586,0.28509,0.28467,0.28456,0.28478,0.28538,0.28634,0.28769,0.28943,0.29162,0.29426,0.29756,0.30144,0.30603,0.31135,0.31751,0.32458,0.33257,0.34188,0.35224,0.36387,0.37667,0.3905,0.4053,0.42078,0.43706,0.45342,0.46991,0.48599,0.50142,0.51621,0.52982,0.54264,0.55427,0.56485,0.57432,0.58268,0.59009,0.59618,0.60122,0.60502,0.60761,0.60898,0.60925,0.60848,0.60666,0.60406,0.60083,0.59705,0.59293,0.58859,0.58405,0.57945,0.57477,0.57011,0.56546,0.56087,0.55635,0.55184,0.54742,0.54298,0.53863,0.53424,0.52991,0.52561,0.52131,0.51712,0.51286,0.50875,0.50469,0.50078,0.49704,0.49349,0.49017,0.4871,0.48435,0.4819,0.47983,0.4781,0.47681,0.47595,0.47549,0.47543,0.47586,0.4767,0.47802,0.47976,0.48193,0.48454,0.48751,0.49087,0.49447,0.49841,0.50249,0.50681,0.51118,0.51572,0.52029,0.52485,0.52947,0.53396,0.53844,0.54271,0.54685,0.55072,0.55444,0.55791,0.56117,0.56429,0.56718,0.56996,0.57254,0.57499,0.5773,0.57947,0.5815,0.58337,0.58515,0.58674,0.58821,0.58954,0.59078,0.5919,0.59287,0.59373,0.59446,0.59503,0.59544,0.59571,0.59582,0.59576,0.59558,0.59521,0.59468,0.59401,0.59315,0.59212,0.59089,0.5895,0.5879,0.5861,0.58417,0.58219,0.5802,0.57824,0.5763,0.57435,0.57239,0.57034,0.56822,0.56595,0.56363,0.56122,0.55883,0.55638,0.55394,0.55151,0.54909,0.54669,0.54423,0.54181,0.53933,0.53682,0.53424,0.53166,0.52906,0.52646,0.52389,0.52134,0.51885,0.51641,0.51401,0.51168,0.50942,0.50718,0.50498,0.50285,0.5007,0.49857,0.49656,0.49458,0.49271,0.49091,0.48925,0.48771,0.48637,0.48522,0.48436,0.48383,0.48362,0.48386,0.4846,0.48581,0.48759,0.48985,0.49274,0.49619,0.50027,0.50482,0.50999,0.51556,0.52157,0.52787,0.53441,0.54105,0.54779,0.55445,0.56108,0.56758,0.57404,0.58049,0.58689,0.59333,0.59973,0.60599,0.61173,0.61683,0.62093,0.62381,0.62547,0.62628,0.62657,0.62678,0.62731,0.62839,0.63013,0.63254,0.63533,0.63827,0.64089,0.64298,0.64421,0.64455,0.64444,0.64401,0.6434,0.6428,0.6422,0.6416,0.64086,0.64007,0.63926,0.63858,0.63797,0.63765,0.63749,0.63752,0.63754,0.63733,0.63677,0.63562,0.63399,0.63211,0.63036,0.62884,0.62779,0.62714,0.62682,0.62674,0.62676,0.62679,0.62672,0.62667,0.62653,0.62639,0.62617,0.62597,0.62577,0.62574,0.62587,0.62621,0.62675,0.62762,0.62877,0.63027,0.63214,0.63435,0.63686,0.63979,0.6428,0.64614,0.64949,0.65297,0.65653,0.6601,0.66367,0.66735,0.67089,0.67458,0.67815,0.68188,0.68563,0.68957,0.69358,0.69779,0.70202,0.70639,0.71074,0.7151,0.71932,0.72356,0.72758,0.7316,0.73545,0.73921,0.74288,0.74641,0.74987,0.75321,0.75653,0.75962,0.7626,0.76538,0.768,0.77039,0.77252,0.77445,0.77599,0.77723,0.77824,0.77895,0.77941,0.77951,0.7795,0.77903,0.7784
-0.007647,-0.0077227,-0.0077926,-0.0078309,-0.0077976,-0.0077354,-0.0076056,-0.0073673,-0.0070138,-0.0065209,-0.0058325,-0.0049803,-0.0038399,-0.0024164,-0.0006589,0.0014311,0.0038699,0.0066595,0.0098409,0.013267,0.016968,0.020941,0.025101,0.029431,0.033808,0.038253,0.042781,0.047169,0.051472,0.055715,0.059789,0.063673,0.067345,0.070828,0.074218,0.077395,0.08046,0.083494,0.086455,0.089411,0.092334,0.095177,0.097992,0.10064,0.10312,0.10539,0.10738,0.10906,0.11046,0.11152,0.11227,0.11265,0.11273,0.11243,0.1118,0.11079,0.10946,0.10781,0.10586,0.10372,0.10144,0.099027,0.096629,0.094247,0.091931,0.089741,0.08764,0.085734,0.083978,0.082353,0.080918,0.079635,0.078488,0.0775,0.076608,0.075853,0.075185,0.074585,0.074058,0.073585,0.07314,0.072724,0.072326,0.071934,0.071528,0.071112,0.07068,0.070202,0.069693,0.069157,0.068583,0.068,0.067416,0.066833,0.066285,0.065791,0.065349,0.064993,0.064711,0.064543,0.064476,0.064525,0.064695,0.065016,0.065464,0.06607,0.06685,0.067791,0.068912,0.070228,0.071735,0.073471,0.075389,0.07751,0.079906,0.082458,0.085228,0.088195,0.091319,0.094646,0.09807,0.10158,0.10526,0.10895,0.1127,0.11645,0.12015,0.12389,0.12748,0.13096,0.13437,0.1376,0.14076,0.14377,0.14669,0.14959,0.15238,0.1552,0.15806,0.16106,0.16434,0.16793,0.17188,0.17641,0.18135,0.18688,0.19288,0.1994,0.20663,0.21433,0.22266,0.2316,0.24104,0.25111,0.26142,0.27198,0.28294,0.29376,0.30463,0.31527,0.32558,0.33571,0.34521,0.35416,0.3626,0.37023,0.37732,0.3835,0.389,0.39383,0.39795,0.4015,0.40448,0.40701,0.40916,0.41095,0.41245,0.41372,0.41473,0.4156,0.41629,0.4168,0.41714,0.4173,0.41729,0.4171,0.41675,0.4162,0.41552,0.41471,0.41378,0.41279,0.41168,0.41049,0.40925,0.40797,0.40659,0.40517,0.40368,0.40216,0.40056,0.39906,0.39742,0.39582,0.39424,0.39262,0.39104,0.38948,0.38797,0.38649,0.38505,0.38369,0.3824,0.38116,0.37997,0.37891,0.37796,0.37709,0.37628,0.37555,0.37487,0.37428,0.37371,0.3732,0.37272,0.37227,0.37184,0.37144,0.37105,0.37066,0.37028,0.36989,0.36947,0.369,0.36848,0.36788,0.3672,0.36644,0.36553,0.36454,0.36342,0.36219,0.36084,0.35933,0.3577,0.35595,0.35406,0.35208,0.34993,0.34773,0.34541,0.34306,0.34068,0.33821,0.33578,0.33331,0.33086,0.32843,0.32599,0.32361,0.32124,0.3189,0.31663,0.31436,0.31215,0.30999,0.30787,0.30582,0.30379,0.30184,0.29996,0.29814,0.29641,0.29475,0.29319,0.29177,0.29046,0.28931,0.2883,0.28746,0.28677,0.28623,0.28583,0.28561,0.28557,0.28579,0.28632,0.28719,0.28853,0.29026,0.29249,0.29515,0.29823,0.30178,0.30552,0.30944,0.31332,0.31703,0.32054,0.32366,0.32645,0.32874,0.33061,0.33208,0.33317,0.33404,0.33474,0.33537,0.33596,0.33656,0.33716,0.33772,0.3382,0.33857,0.3388,0.33886,0.33885,0.33882,0.3389,0.33915,0.33964,0.34033,0.3412,0.34214,0.34311,0.34405,0.34485,0.34555,0.34613,0.3466,0.34696,0.34719,0.34732,0.34738,0.34737,0.34732,0.34724,0.34705,0.34675,0.34625,0.34555,0.34463,0.34351,0.34222,0.34074,0.33913,0.3374,0.3356,0.33378,0.3319,0.33006,0.32826,0.32654,0.3249,0.32337,0.32194,0.3206,0.31934,0.31812,0.31691,0.31566,0.31435,0.31297,0.31149,0.30996,0.30835,0.30666,0.30503,0.30325,0.30146,0.2997,0.298,0.29646,0.29513,0.29404,0.29325,0.2928,0.29267,0.2929,0.2935,0.29451,0.2959,0.29773,0.29998,0.30272,0.30611,0.31011,0.31487,0.32035,0.3267,0.33399,0.3422,0.35179,0.36241,0.37436,0.38751,0.40165,0.41682,0.43266,0.4493,0.466,0.48281,0.49924,0.51501,0.53016,0.54409,0.55722,0.56915,0.58001,0.58978,0.59842,0.60606,0.6124,0.61766,0.62167,0.62443,0.62595,0.62633,0.62563,0.62385,0.62126,0.61804,0.61427,0.61013,0.60572,0.60117,0.59652,0.59179,0.58708,0.58236,0.57772,0.57314,0.56854,0.56407,0.55959,0.55517,0.55073,0.54633,0.54196,0.53758,0.53329,0.52897,0.52479,0.52065,0.51665,0.51283,0.50919,0.50579,0.50261,0.49981,0.49728,0.49515,0.49339,0.49207,0.4912,0.49071,0.49067,0.49109,0.49193,0.49325,0.49502,0.49721,0.49988,0.50289,0.50631,0.50997,0.51402,0.51819,0.52261,0.52711,0.53175,0.53641,0.54111,0.54585,0.5505,0.55506,0.55944,0.56369,0.56769,0.57147,0.57506,0.57841,0.58162,0.58455,0.58742,0.59008,0.59261,0.59498,0.59722,0.59931,0.60125,0.60306,0.60472,0.60628,0.60764,0.60889,0.61004,0.61108,0.61197,0.6127,0.61329,0.61372,0.61402,0.61413,0.61407,0.61387,0.61348,0.61293,0.61226,0.61138,0.61033,0.60907,0.60763,0.60595,0.60417,0.60219,0.60019,0.59812,0.59606,0.59409,0.59211,0.5901,0.58802,0.58586,0.5836,0.58122,0.57878,0.57635,0.57387,0.5714,0.56892,0.56647,0.564,0.56152,0.559,0.55644,0.55385,0.5512,0.54856,0.54588,0.54324,0.54057,0.53797,0.5354,0.53289,0.53045,0.52806,0.52572,0.5234,0.52115,0.51892,0.51673,0.51452,0.5124,0.51033,0.50837,0.50646,0.50469,0.50301,0.50156,0.50028,0.49932,0.49866,0.49836,0.49848,0.49907,0.50014,0.50179,0.50399,0.50685,0.51019,0.51424,0.51882,0.52403,0.52965,0.53581,0.54227,0.54905,0.55594,0.56291,0.5698,0.57672,0.58346,0.59025,0.59694,0.60368,0.61043,0.61713,0.62372,0.62983,0.63526,0.63954,0.64259,0.64447,0.64521,0.64545,0.64563,0.64611,0.64723,0.649,0.65145,0.65427,0.6573,0.65997,0.66208,0.66328,0.66373,0.66355,0.66302,0.66234,0.66169,0.66103,0.66033,0.65958,0.6587,0.65785,0.65706,0.65644,0.65603,0.6558,0.65581,0.65586,0.65565,0.65502,0.65383,0.65214,0.65027,0.64842,0.6469,0.64583,0.64522,0.64497,0.64495,0.64499,0.64509,0.64512,0.64504,0.64494,0.64479,0.64458,0.64433,0.64417,0.64419,0.64432,0.64467,0.64529,0.64616,0.64743,0.64913,0.65108,0.65346,0.65617,0.65914,0.66238,0.6658,0.6694,0.67309,0.67678,0.68048,0.68418,0.68792,0.6915,0.69525,0.69893,0.7027,0.70652,0.71051,0.71462,0.71885,0.7232,0.72767,0.73206,0.73653,0.74077,0.74498,0.74906,0.75304,0.75681,0.7606,0.7643,0.76789,0.77134,0.77463,0.77781,0.78091,0.78386,0.78673,0.78929,0.79176,0.7939,0.79575,0.79731,0.79856,0.79962,0.80033,0.8007,0.80077,0.80053,0.80024,0.79961
-0.014076,-0.014141,-0.014199,-0.014229,-0.0142,-0.014146,-0.014026,-0.013821,-0.013501,-0.013058,-0.012438,-0.011664,-0.010649,-0.0093825,-0.0078181,-0.0059566,-0.0037915,-0.0013303,0.0014734,0.0044774,0.0077225,0.011209,0.014841,0.018622,0.022441,0.026324,0.030278,0.034113,0.037879,0.041604,0.045183,0.048606,0.051849,0.054923,0.057918,0.060735,0.063451,0.066142,0.068771,0.07139,0.073975,0.076505,0.078997,0.081339,0.083538,0.085548,0.087298,0.088781,0.090024,0.090936,0.091593,0.091923,0.091987,0.091724,0.091167,0.090278,0.089111,0.087663,0.085953,0.084075,0.082074,0.079959,0.077848,0.075759,0.073725,0.0718,0.069952,0.06827,0.066717,0.065288,0.064023,0.062886,0.061874,0.061002,0.060218,0.059549,0.05896,0.058431,0.057967,0.057558,0.057168,0.056807,0.056465,0.056122,0.055778,0.055413,0.055032,0.054618,0.054166,0.053692,0.053175,0.052652,0.05213,0.051606,0.051108,0.050663,0.050256,0.049927,0.049665,0.0495,0.049419,0.049446,0.049578,0.049841,0.050226,0.05074,0.051411,0.052227,0.053196,0.054341,0.055655,0.057165,0.058843,0.060691,0.062786,0.065029,0.067462,0.070064,0.072817,0.075755,0.078774,0.081873,0.085138,0.088399,0.091724,0.095049,0.098334,0.10164,0.10482,0.10789,0.11091,0.11377,0.11656,0.11921,0.12178,0.12434,0.1268,0.12926,0.13176,0.13436,0.1372,0.1403,0.14371,0.1476,0.15184,0.15662,0.16184,0.1675,0.1738,0.1805,0.18777,0.19559,0.20384,0.21267,0.22174,0.23102,0.24066,0.25021,0.25982,0.26922,0.27835,0.28734,0.29578,0.30374,0.31124,0.31804,0.32436,0.32987,0.33478,0.3391,0.3428,0.34598,0.34868,0.35096,0.35291,0.35454,0.35591,0.35707,0.35802,0.35883,0.35946,0.35995,0.36028,0.36047,0.36049,0.36034,0.36006,0.35962,0.35908,0.35841,0.35766,0.35684,0.35593,0.35494,0.35392,0.35282,0.35166,0.3504,0.34911,0.34779,0.34641,0.34511,0.34366,0.34224,0.34083,0.33936,0.33795,0.33653,0.33518,0.33385,0.33254,0.33132,0.33015,0.32902,0.32793,0.327,0.32614,0.32539,0.32467,0.32402,0.32341,0.32288,0.32237,0.32192,0.32148,0.32107,0.32069,0.32033,0.31999,0.31965,0.31932,0.31898,0.31861,0.31821,0.31775,0.31723,0.31663,0.31596,0.31515,0.31427,0.31328,0.31218,0.31098,0.30961,0.30816,0.30657,0.30487,0.30307,0.30113,0.29914,0.29705,0.29493,0.29277,0.29054,0.28834,0.28612,0.2839,0.28171,0.27951,0.27736,0.27523,0.27314,0.27109,0.26903,0.26706,0.2651,0.26319,0.26134,0.25951,0.25775,0.25606,0.25442,0.25287,0.25137,0.24997,0.24868,0.24751,0.24647,0.24556,0.2448,0.24417,0.24368,0.24332,0.24311,0.24308,0.24327,0.24373,0.24449,0.24566,0.24718,0.24912,0.25145,0.25414,0.25724,0.26052,0.26395,0.26731,0.27053,0.27355,0.27621,0.27857,0.28046,0.28198,0.28317,0.28402,0.2847,0.28522,0.28572,0.28619,0.28668,0.28718,0.28766,0.28806,0.28839,0.28862,0.28875,0.2888,0.28885,0.28897,0.28924,0.2897,0.29032,0.29108,0.2919,0.29272,0.29349,0.29416,0.29473,0.29518,0.29555,0.29583,0.29603,0.29616,0.29622,0.29623,0.29622,0.29618,0.29604,0.29579,0.29536,0.29474,0.29393,0.29296,0.29181,0.2905,0.28907,0.28754,0.28596,0.28434,0.28268,0.28107,0.27948,0.27796,0.27652,0.27517,0.27392,0.27274,0.27165,0.27058,0.26952,0.26843,0.26729,0.26608,0.26477,0.26341,0.26198,0.26048,0.25904,0.25744,0.25583,0.25425,0.25273,0.25135,0.25015,0.24917,0.24843,0.24803,0.2479,0.24807,0.24859,0.24944,0.25063,0.2522,0.25414,0.25647,0.25938,0.26283,0.26692,0.2717,0.27721,0.28353,0.29071,0.29908,0.3084,0.31887,0.33041,0.34287,0.35627,0.37024,0.38498,0.39979,0.41482,0.42953,0.44373,0.45739,0.46998,0.4819,0.49278,0.50275,0.5117,0.51966,0.52675,0.53263,0.53753,0.54125,0.5438,0.5452,0.54552,0.54479,0.54311,0.54065,0.53761,0.53402,0.53013,0.52601,0.52175,0.51744,0.51303,0.50868,0.50434,0.50008,0.49586,0.49166,0.48757,0.48344,0.4794,0.47537,0.47137,0.46739,0.46343,0.45953,0.4556,0.4518,0.44806,0.44448,0.44102,0.43775,0.4347,0.43186,0.42935,0.42711,0.42523,0.42368,0.42255,0.42179,0.42141,0.42142,0.42187,0.42269,0.42397,0.42562,0.42769,0.43016,0.43294,0.43609,0.43951,0.44322,0.44708,0.45114,0.45534,0.4596,0.46395,0.46829,0.47268,0.47695,0.4812,0.48529,0.48925,0.49299,0.49653,0.49987,0.50299,0.506,0.50877,0.51147,0.51398,0.51637,0.51865,0.52074,0.52275,0.52459,0.52633,0.52794,0.52943,0.53074,0.53196,0.53306,0.53402,0.53487,0.53561,0.53617,0.5366,0.53691,0.53703,0.537,0.5368,0.53647,0.53598,0.53536,0.53457,0.53361,0.53246,0.53115,0.52965,0.52802,0.52619,0.52436,0.52248,0.52056,0.51869,0.51683,0.51492,0.51293,0.5109,0.50875,0.50657,0.5043,0.50203,0.49973,0.49744,0.49514,0.49285,0.49057,0.48828,0.48597,0.48361,0.48123,0.47877,0.47633,0.47385,0.47142,0.46899,0.4666,0.46425,0.4619,0.45965,0.45746,0.45531,0.45318,0.4511,0.44906,0.44706,0.44504,0.4431,0.44121,0.43941,0.43767,0.43606,0.43459,0.43328,0.43213,0.43122,0.43057,0.43027,0.43034,0.43081,0.43175,0.43319,0.43507,0.43755,0.44051,0.44407,0.4481,0.45274,0.45774,0.46325,0.46901,0.47509,0.48137,0.4877,0.49399,0.50028,0.50647,0.51262,0.51873,0.52484,0.53104,0.53727,0.54343,0.54911,0.55416,0.55806,0.56078,0.56225,0.56274,0.56266,0.56246,0.56255,0.56315,0.56447,0.56637,0.56875,0.57133,0.57375,0.57572,0.57705,0.57769,0.57786,0.57767,0.57726,0.5768,0.57625,0.57563,0.57485,0.57397,0.57307,0.57218,0.57142,0.57084,0.57043,0.57014,0.56989,0.56942,0.56867,0.56752,0.56605,0.56438,0.56284,0.56153,0.56062,0.5601,0.55984,0.55975,0.55974,0.5598,0.5598,0.5597,0.55957,0.55942,0.55912,0.55883,0.55861,0.55859,0.55866,0.559,0.55959,0.5604,0.56153,0.56302,0.56488,0.56707,0.56958,0.57243,0.57552,0.57875,0.58214,0.58557,0.58905,0.59263,0.5961,0.59971,0.60325,0.60676,0.61023,0.61388,0.61751,0.62129,0.62514,0.6292,0.63333,0.63756,0.64178,0.64603,0.65019,0.65424,0.65811,0.66199,0.66565,0.66931,0.67283,0.67629,0.67958,0.68288,0.686,0.68899,0.69184,0.6945,0.69704,0.69932,0.70135,0.70309,0.70458,0.70578,0.70671,0.70742,0.70775,0.7079,0.70771,0.70732,0.70676
-0.013715,-0.013782,-0.013852,-0.013885,-0.01386,-0.013803,-0.0137,-0.013486,-0.013168,-0.012722,-0.0121,-0.011314,-0.010282,-0.0089813,-0.0073743,-0.00546,-0.0032252,-0.0006855,0.0022146,0.0053244,0.0086904,0.012302,0.01607,0.020001,0.023966,0.02799,0.03209,0.036068,0.039974,0.043835,0.047545,0.051094,0.054455,0.057646,0.060763,0.063695,0.066517,0.06932,0.072061,0.074787,0.077471,0.080093,0.082689,0.085114,0.087393,0.089478,0.091288,0.09282,0.094096,0.095043,0.095715,0.096043,0.096093,0.095804,0.095212,0.094282,0.093064,0.091552,0.089772,0.087818,0.085744,0.083553,0.081369,0.079209,0.077094,0.075098,0.073185,0.071443,0.069841,0.068349,0.067043,0.065859,0.064808,0.063907,0.063095,0.062403,0.061791,0.061246,0.06077,0.060341,0.059938,0.059562,0.059208,0.058852,0.058498,0.058118,0.057722,0.057286,0.05682,0.056328,0.055796,0.055255,0.054718,0.05417,0.053661,0.053196,0.052776,0.052434,0.052161,0.051992,0.051909,0.05194,0.052074,0.052352,0.052746,0.053284,0.053982,0.054824,0.055829,0.057017,0.058381,0.059945,0.061685,0.063608,0.065783,0.068102,0.07063,0.073332,0.076186,0.079229,0.082364,0.085575,0.08896,0.092339,0.09579,0.099239,0.10264,0.10608,0.10938,0.11259,0.11572,0.11869,0.12159,0.12435,0.12702,0.12969,0.13226,0.13482,0.13743,0.14014,0.1431,0.14631,0.1498,0.15386,0.15831,0.16328,0.1687,0.17459,0.18114,0.18812,0.19567,0.20379,0.2124,0.22158,0.231,0.24066,0.2507,0.26064,0.27063,0.28043,0.28993,0.29927,0.30804,0.31631,0.32408,0.33114,0.33768,0.34337,0.34845,0.35292,0.35674,0.36001,0.36277,0.36512,0.36711,0.36878,0.37018,0.37137,0.37233,0.37314,0.37377,0.37425,0.3746,0.37476,0.37477,0.37461,0.3743,0.37384,0.37324,0.37254,0.37173,0.37086,0.36991,0.36887,0.36777,0.36663,0.36535,0.36405,0.36271,0.36133,0.35988,0.35852,0.35702,0.35556,0.3541,0.35262,0.35119,0.34976,0.34837,0.34703,0.34571,0.34443,0.34325,0.34211,0.34101,0.34003,0.33915,0.33836,0.33765,0.33701,0.33639,0.33585,0.33532,0.33485,0.33439,0.33398,0.33359,0.3332,0.33285,0.3325,0.33215,0.33181,0.33143,0.33101,0.33054,0.33001,0.32938,0.32868,0.32786,0.32696,0.32593,0.32479,0.32354,0.32214,0.32064,0.31899,0.31724,0.31538,0.31338,0.31132,0.30917,0.30698,0.30474,0.30245,0.30017,0.29787,0.29559,0.29332,0.29104,0.28881,0.28662,0.28445,0.28234,0.28023,0.27818,0.27617,0.27419,0.27229,0.2704,0.26858,0.26683,0.26514,0.26353,0.26198,0.26053,0.25919,0.25797,0.2569,0.25595,0.25517,0.25452,0.25402,0.25365,0.25343,0.2534,0.25362,0.25411,0.25492,0.25615,0.25774,0.25978,0.26221,0.26504,0.26828,0.2717,0.27526,0.27874,0.28209,0.2852,0.28793,0.29035,0.29227,0.29381,0.29499,0.29584,0.2965,0.29703,0.29752,0.29801,0.29852,0.29904,0.29954,0.29998,0.30036,0.30064,0.30081,0.30091,0.30102,0.30122,0.30154,0.30206,0.30273,0.30354,0.30439,0.30523,0.306,0.30668,0.30724,0.3077,0.30806,0.30833,0.30852,0.30865,0.30872,0.30876,0.30876,0.30873,0.30862,0.30838,0.30795,0.30734,0.30651,0.3055,0.30432,0.30296,0.30148,0.2999,0.29824,0.29656,0.29484,0.29317,0.29151,0.28994,0.28844,0.28703,0.28574,0.28452,0.28337,0.28226,0.28115,0.28003,0.27885,0.27759,0.27624,0.27482,0.27334,0.27178,0.27028,0.26861,0.26694,0.2653,0.26372,0.26229,0.26104,0.26003,0.25926,0.25883,0.25869,0.25886,0.25941,0.26031,0.26155,0.26319,0.26521,0.26763,0.27066,0.27425,0.27852,0.2835,0.28927,0.29589,0.30336,0.31208,0.32177,0.33265,0.34463,0.35757,0.37142,0.3859,0.40109,0.41638,0.4318,0.44687,0.46136,0.47524,0.48812,0.5002,0.51123,0.52127,0.5303,0.53831,0.54543,0.55132,0.55623,0.55995,0.5625,0.56386,0.56415,0.56343,0.56172,0.55924,0.5562,0.5526,0.54873,0.54461,0.54029,0.53596,0.53155,0.52718,0.52281,0.51853,0.51428,0.51008,0.50593,0.50178,0.49773,0.49364,0.48961,0.4856,0.48158,0.47763,0.47365,0.4698,0.46599,0.46231,0.4588,0.45547,0.45236,0.44946,0.44691,0.44462,0.44269,0.4411,0.43996,0.43922,0.43884,0.43888,0.43935,0.44024,0.44157,0.44329,0.44543,0.44799,0.45087,0.45412,0.45764,0.46148,0.46545,0.46964,0.47391,0.47829,0.48275,0.48719,0.49167,0.49603,0.50038,0.50452,0.50854,0.51233,0.51592,0.51928,0.52246,0.52553,0.52831,0.53102,0.53353,0.53592,0.53818,0.54034,0.54231,0.54416,0.54591,0.54749,0.54897,0.55031,0.55155,0.55264,0.55363,0.55449,0.55519,0.55579,0.55624,0.55653,0.55667,0.55666,0.55649,0.55615,0.55566,0.55505,0.55427,0.5533,0.55215,0.55086,0.54937,0.54771,0.54592,0.54405,0.54218,0.54027,0.53841,0.53652,0.53465,0.5327,0.53069,0.52857,0.52643,0.52417,0.52193,0.51966,0.51739,0.51512,0.51283,0.51054,0.50823,0.50592,0.50356,0.50116,0.49872,0.49626,0.49376,0.49132,0.48887,0.48647,0.48408,0.48177,0.47948,0.47727,0.47512,0.47297,0.47086,0.4688,0.46676,0.46473,0.46275,0.46082,0.45897,0.4572,0.45554,0.454,0.45267,0.45147,0.45051,0.44988,0.44956,0.44963,0.45015,0.4511,0.45257,0.45453,0.45705,0.46009,0.46373,0.46785,0.47257,0.47771,0.48336,0.48926,0.49547,0.50178,0.50824,0.51464,0.52101,0.52718,0.53336,0.53953,0.54569,0.55193,0.55814,0.56433,0.57005,0.5751,0.579,0.58168,0.58314,0.58365,0.58354,0.58333,0.5834,0.584,0.58525,0.58716,0.58947,0.59197,0.59438,0.5964,0.59772,0.59845,0.59867,0.59851,0.59819,0.5978,0.5973,0.59668,0.59596,0.59515,0.59424,0.59341,0.59261,0.59203,0.59159,0.59127,0.59096,0.59049,0.58974,0.58858,0.58715,0.58555,0.58401,0.58275,0.58186,0.58136,0.58111,0.58108,0.58109,0.5811,0.58107,0.58098,0.58085,0.58065,0.58041,0.58009,0.57991,0.57987,0.57999,0.58031,0.5809,0.58174,0.58287,0.58441,0.58631,0.58851,0.59101,0.59389,0.59696,0.60023,0.60363,0.60706,0.61059,0.61418,0.61765,0.62119,0.6247,0.62822,0.6317,0.63529,0.63889,0.64272,0.64665,0.6507,0.65484,0.65909,0.66323,0.66751,0.67158,0.6756,0.67941,0.68326,0.68688,0.69049,0.69394,0.69734,0.7006,0.70387,0.70691,0.70985,0.71273,0.7154,0.71786,0.72004,0.72201,0.72376,0.72518,0.72638,0.72732,0.72799,0.72843,0.72854,0.72841,0.72803,0.72746
-0.015403,-0.01547,-0.015541,-0.015583,-0.015562,-0.015499,-0.015392,-0.015177,-0.014854,-0.014389,-0.013747,-0.012951,-0.011892,-0.01057,-0.0089428,-0.0069958,-0.0047369,-0.0021732,0.0007537,0.0038978,0.0072819,0.010914,0.014703,0.018646,0.022627,0.026662,0.030768,0.034757,0.038669,0.042536,0.04625,0.049808,0.053172,0.056362,0.059471,0.062394,0.065213,0.068003,0.070719,0.073426,0.076093,0.078689,0.08125,0.083642,0.08589,0.087941,0.089716,0.091216,0.092464,0.093372,0.094016,0.094325,0.094369,0.09407,0.093471,0.092538,0.091323,0.089814,0.088034,0.086085,0.084014,0.081827,0.079645,0.07748,0.075377,0.073382,0.071474,0.069741,0.06814,0.066663,0.065359,0.064185,0.063138,0.062239,0.061428,0.060738,0.060126,0.05958,0.059103,0.058677,0.058277,0.057912,0.057562,0.057213,0.056864,0.056492,0.056105,0.055682,0.055222,0.054738,0.054225,0.053687,0.053146,0.052612,0.052112,0.051651,0.051242,0.050912,0.050649,0.05049,0.050419,0.050458,0.050606,0.050893,0.051301,0.051846,0.052555,0.053412,0.054428,0.055622,0.056991,0.058567,0.060309,0.062235,0.064412,0.066734,0.069256,0.071961,0.074809,0.077849,0.08097,0.084173,0.087533,0.090896,0.094328,0.097749,0.10113,0.10453,0.1078,0.11097,0.11408,0.11703,0.11991,0.12265,0.1253,0.12795,0.13052,0.13307,0.13567,0.13838,0.14133,0.14452,0.14804,0.15209,0.15648,0.16142,0.16677,0.17259,0.17904,0.18589,0.19331,0.20129,0.20971,0.21868,0.22789,0.2373,0.24709,0.25676,0.26645,0.27595,0.28516,0.29421,0.30271,0.31072,0.31826,0.3251,0.33145,0.33697,0.3419,0.34622,0.34991,0.35309,0.35575,0.358,0.35993,0.36154,0.36289,0.36404,0.36497,0.36577,0.36638,0.36685,0.36717,0.36735,0.36735,0.36718,0.36688,0.36642,0.36585,0.36517,0.36441,0.3636,0.3627,0.36173,0.36073,0.35964,0.35847,0.35725,0.35596,0.35465,0.35324,0.35193,0.35045,0.34899,0.34752,0.34601,0.34454,0.34306,0.34163,0.34023,0.33886,0.33756,0.33635,0.33517,0.33403,0.33303,0.33213,0.33131,0.33057,0.32989,0.32927,0.3287,0.32817,0.32768,0.32722,0.32679,0.32639,0.32601,0.32565,0.32532,0.32496,0.32464,0.32428,0.32387,0.32341,0.32289,0.32231,0.32163,0.32084,0.31996,0.31897,0.31786,0.31666,0.31529,0.31384,0.31226,0.31055,0.30874,0.30682,0.30483,0.30274,0.3006,0.29846,0.29622,0.29402,0.29179,0.28958,0.28738,0.28518,0.28302,0.28088,0.27878,0.27673,0.27467,0.27269,0.27072,0.2688,0.26695,0.26512,0.26335,0.26164,0.25999,0.25842,0.25692,0.2555,0.25421,0.25303,0.25199,0.25107,0.25032,0.24971,0.24922,0.24889,0.2487,0.24868,0.24892,0.24943,0.25025,0.25149,0.25307,0.25509,0.2575,0.26028,0.26346,0.26682,0.27032,0.27374,0.27701,0.28006,0.28276,0.28515,0.28708,0.28864,0.28985,0.29073,0.29145,0.29202,0.29255,0.29306,0.29358,0.29412,0.29463,0.29507,0.29543,0.29566,0.29577,0.29581,0.29583,0.29592,0.29615,0.29658,0.29717,0.2979,0.29868,0.29947,0.30022,0.30086,0.3014,0.30184,0.30218,0.30244,0.30261,0.30271,0.30273,0.30271,0.30266,0.30258,0.3024,0.30213,0.30168,0.30104,0.30021,0.2992,0.29802,0.29669,0.29524,0.29371,0.29211,0.29048,0.28881,0.28718,0.28557,0.28404,0.2826,0.28123,0.27996,0.27877,0.27766,0.27658,0.2755,0.27441,0.27324,0.27202,0.2707,0.26932,0.26789,0.26637,0.26491,0.26329,0.26168,0.26009,0.25856,0.25719,0.25598,0.255,0.25429,0.25388,0.25377,0.25396,0.2545,0.25539,0.25662,0.25822,0.2602,0.26258,0.26555,0.26909,0.27331,0.27817,0.28381,0.29029,0.29761,0.30612,0.31562,0.32624,0.33797,0.35061,0.36417,0.37829,0.39317,0.40813,0.42326,0.43807,0.45232,0.46604,0.47867,0.49066,0.50154,0.51152,0.52048,0.52844,0.5355,0.5414,0.5463,0.55003,0.55257,0.55395,0.55423,0.55352,0.55182,0.54936,0.54632,0.54276,0.53886,0.53473,0.53043,0.52612,0.5217,0.51734,0.51299,0.5087,0.50451,0.50033,0.49623,0.49211,0.48808,0.48404,0.48004,0.47607,0.47207,0.46818,0.46422,0.46041,0.45664,0.45299,0.44952,0.44622,0.44313,0.44024,0.43771,0.43543,0.43351,0.43195,0.43078,0.42999,0.42958,0.42956,0.42995,0.43074,0.43198,0.43358,0.43562,0.43804,0.44082,0.44395,0.44733,0.45103,0.45488,0.45896,0.46311,0.46741,0.47174,0.47606,0.48045,0.48475,0.489,0.49304,0.49696,0.50067,0.50418,0.50747,0.51054,0.5135,0.51621,0.51884,0.52128,0.52361,0.52583,0.52785,0.52977,0.53156,0.53326,0.5348,0.53625,0.53751,0.53868,0.53977,0.54073,0.54154,0.54225,0.54279,0.54319,0.54345,0.54357,0.54354,0.54337,0.54303,0.54256,0.54193,0.54114,0.54019,0.53904,0.53773,0.53626,0.53457,0.5328,0.53097,0.52912,0.52723,0.52537,0.52354,0.52168,0.51975,0.51776,0.51564,0.51348,0.51126,0.50905,0.50677,0.50449,0.50225,0.5,0.49775,0.4955,0.49323,0.4909,0.48855,0.48614,0.4837,0.48124,0.47882,0.4764,0.474,0.47164,0.46934,0.46709,0.46487,0.46272,0.46063,0.45856,0.45652,0.45454,0.45253,0.4506,0.44871,0.4469,0.44516,0.44352,0.44202,0.44067,0.4395,0.43856,0.43793,0.43757,0.43764,0.43811,0.43904,0.44045,0.44234,0.44482,0.44778,0.45137,0.45544,0.46006,0.46512,0.4706,0.47639,0.48254,0.48874,0.49506,0.50134,0.50761,0.51377,0.5199,0.52599,0.53213,0.53832,0.5445,0.55059,0.55628,0.56126,0.5652,0.56792,0.56942,0.56994,0.56995,0.56981,0.56993,0.57062,0.57198,0.57395,0.5764,0.57901,0.58144,0.58341,0.58469,0.58532,0.58536,0.5851,0.5846,0.58405,0.58341,0.58279,0.58198,0.58113,0.58022,0.57938,0.5786,0.57804,0.57763,0.57744,0.57722,0.57689,0.57618,0.57506,0.57354,0.57187,0.57023,0.56889,0.56799,0.56738,0.56706,0.567,0.56698,0.56698,0.56692,0.56683,0.56667,0.56649,0.56619,0.56595,0.56572,0.56567,0.56575,0.56605,0.56665,0.56747,0.5686,0.57011,0.57193,0.57409,0.5766,0.57939,0.58239,0.58565,0.58898,0.59243,0.59585,0.5994,0.60289,0.60637,0.60986,0.61337,0.61684,0.62039,0.62397,0.62777,0.63161,0.63565,0.63976,0.64398,0.64818,0.65243,0.6564,0.66052,0.66433,0.66813,0.67181,0.67544,0.679,0.68236,0.68566,0.68888,0.69202,0.695,0.69782,0.70049,0.70297,0.70519,0.70709,0.70883,0.71019,0.71129,0.71223,0.71289,0.71318,0.71332,0.71314,0.71271,0.71212
-0.012833,-0.012907,-0.012982,-0.013025,-0.012995,-0.012948,-0.012828,-0.012624,-0.012296,-0.011838,-0.011185,-0.010375,-0.0093067,-0.0079675,-0.0063191,-0.0043476,-0.0020689,0.0005292,0.003495,0.006679,0.010112,0.013795,0.017639,0.021636,0.025671,0.029762,0.033926,0.037957,0.041912,0.045818,0.049568,0.053155,0.056551,0.059767,0.06291,0.065862,0.068711,0.071535,0.074301,0.077045,0.079758,0.082399,0.085015,0.087466,0.089772,0.09188,0.093714,0.095267,0.096569,0.097523,0.098209,0.098549,0.098611,0.098335,0.097743,0.096813,0.095594,0.094075,0.092289,0.090318,0.088232,0.086025,0.083829,0.081647,0.079521,0.077517,0.075591,0.073833,0.072216,0.070725,0.069405,0.068224,0.067172,0.066269,0.06545,0.064754,0.064139,0.063592,0.063113,0.062679,0.062279,0.061901,0.06154,0.061184,0.060826,0.060449,0.060054,0.059615,0.059143,0.05865,0.058125,0.057579,0.057035,0.056499,0.055991,0.055531,0.055118,0.054779,0.054515,0.054354,0.054285,0.054337,0.054487,0.054778,0.055193,0.055749,0.056469,0.057337,0.05837,0.059589,0.060973,0.062573,0.064344,0.066293,0.068501,0.070861,0.073422,0.076159,0.079055,0.082135,0.085301,0.088547,0.091959,0.095376,0.098849,0.10232,0.10575,0.10921,0.11253,0.11576,0.11892,0.12192,0.12485,0.12764,0.13034,0.13303,0.13563,0.13822,0.14086,0.14361,0.1466,0.14985,0.15343,0.15758,0.16211,0.1672,0.17272,0.17873,0.18541,0.19251,0.2002,0.20848,0.21723,0.22656,0.23615,0.24596,0.25617,0.26626,0.27642,0.28637,0.29602,0.30552,0.31444,0.32285,0.33077,0.33795,0.34462,0.35042,0.35562,0.36016,0.36404,0.36736,0.37015,0.37251,0.37451,0.3762,0.3776,0.37879,0.37974,0.38056,0.38119,0.38168,0.38201,0.38216,0.38216,0.38196,0.38162,0.38112,0.38049,0.37975,0.37892,0.37801,0.37702,0.37598,0.37487,0.37368,0.37242,0.37112,0.36976,0.36837,0.36691,0.36552,0.36397,0.36244,0.36093,0.35938,0.35786,0.35636,0.35489,0.35346,0.35207,0.35076,0.34951,0.34831,0.34718,0.34615,0.34523,0.3444,0.34366,0.34297,0.34234,0.3418,0.34127,0.34079,0.34032,0.3399,0.33951,0.33914,0.33878,0.33844,0.33809,0.33775,0.33737,0.33694,0.33648,0.33594,0.33532,0.33462,0.33379,0.33287,0.33183,0.33068,0.32942,0.32802,0.32651,0.32486,0.32309,0.32123,0.31922,0.31716,0.315,0.31279,0.31056,0.30824,0.30595,0.30364,0.30133,0.29906,0.29676,0.29452,0.29229,0.29011,0.28798,0.28584,0.28377,0.28173,0.27974,0.2778,0.27589,0.27405,0.27228,0.27057,0.26893,0.26736,0.26589,0.26452,0.26329,0.26217,0.2612,0.26039,0.25972,0.25918,0.25878,0.25855,0.25847,0.25866,0.25914,0.25993,0.26115,0.26273,0.26478,0.26723,0.27007,0.27334,0.27678,0.2804,0.28393,0.28731,0.29048,0.29327,0.29575,0.29775,0.29936,0.30061,0.3015,0.30221,0.30276,0.30327,0.30375,0.30425,0.30477,0.30528,0.30572,0.3061,0.30636,0.30651,0.3066,0.30668,0.30685,0.30717,0.30768,0.30836,0.30919,0.31006,0.31093,0.31175,0.31246,0.31306,0.31355,0.31394,0.31424,0.31444,0.31457,0.31464,0.31465,0.31465,0.31461,0.31446,0.31421,0.31377,0.31313,0.31228,0.31126,0.31007,0.3087,0.3072,0.3056,0.30393,0.30223,0.30049,0.29879,0.29711,0.2955,0.29398,0.29254,0.29122,0.28996,0.2888,0.28766,0.28653,0.28539,0.28417,0.28289,0.28152,0.28009,0.27859,0.277,0.27549,0.27381,0.27214,0.27048,0.2689,0.26747,0.26623,0.26522,0.26448,0.26406,0.26394,0.26415,0.26471,0.26563,0.2669,0.26856,0.27061,0.27308,0.2762,0.27986,0.28424,0.28933,0.2952,0.30196,0.30957,0.31847,0.32833,0.33943,0.35167,0.36488,0.37907,0.39386,0.40944,0.42513,0.44099,0.45652,0.47145,0.48578,0.49904,0.51154,0.52291,0.53333,0.54268,0.55099,0.55832,0.56442,0.56947,0.57334,0.57598,0.57746,0.57777,0.57706,0.57535,0.5728,0.56966,0.56597,0.56197,0.55773,0.55328,0.54879,0.54421,0.53967,0.53512,0.53064,0.52625,0.52185,0.51754,0.51324,0.50902,0.50477,0.5006,0.49643,0.49228,0.48818,0.48405,0.48009,0.47615,0.47235,0.46872,0.46529,0.46208,0.45908,0.45645,0.45409,0.45211,0.45048,0.44928,0.44849,0.44809,0.4481,0.44856,0.44943,0.45076,0.45248,0.45466,0.45726,0.46018,0.4635,0.46706,0.47097,0.47503,0.4793,0.4837,0.48814,0.49273,0.49729,0.50187,0.50633,0.51079,0.51501,0.51913,0.52302,0.52672,0.5302,0.53345,0.53653,0.53942,0.54223,0.54484,0.54733,0.54964,0.55182,0.55386,0.55576,0.55753,0.55917,0.56066,0.56201,0.56326,0.56436,0.56537,0.56619,0.5669,0.56747,0.56789,0.56814,0.5682,0.56813,0.56791,0.56754,0.56695,0.56629,0.56542,0.56438,0.56316,0.56176,0.56017,0.55843,0.55652,0.55458,0.55257,0.55061,0.54867,0.54672,0.54475,0.54272,0.54066,0.53841,0.53618,0.53381,0.53147,0.5291,0.52673,0.52436,0.522,0.51958,0.51721,0.51482,0.51236,0.50989,0.50733,0.50481,0.50222,0.49969,0.49711,0.49466,0.49218,0.48974,0.48736,0.48504,0.48276,0.48053,0.47835,0.47615,0.47404,0.47192,0.46988,0.46786,0.46596,0.46416,0.46245,0.46086,0.45945,0.45821,0.45727,0.45663,0.45628,0.45635,0.45686,0.45782,0.45932,0.4613,0.46389,0.467,0.47073,0.47499,0.47983,0.48512,0.49092,0.49699,0.50341,0.50994,0.51658,0.52319,0.52977,0.53624,0.54268,0.54905,0.55548,0.56197,0.56842,0.57479,0.58064,0.58585,0.58998,0.59282,0.59436,0.59494,0.59498,0.59486,0.59503,0.59571,0.5971,0.59909,0.60154,0.60423,0.60672,0.60882,0.61016,0.61085,0.61096,0.61076,0.61034,0.60984,0.60931,0.60863,0.60785,0.607,0.60611,0.60521,0.60443,0.60388,0.60345,0.60318,0.60294,0.60251,0.60176,0.60058,0.59905,0.59737,0.59571,0.59437,0.59346,0.59285,0.59261,0.59254,0.59252,0.59252,0.59254,0.59243,0.5923,0.59208,0.59183,0.59159,0.59142,0.59142,0.59151,0.59188,0.59249,0.59336,0.5946,0.59616,0.59815,0.60043,0.60309,0.6061,0.60926,0.61265,0.61616,0.61975,0.62338,0.62707,0.63069,0.63445,0.638,0.64164,0.64536,0.64915,0.6529,0.65681,0.66096,0.66521,0.66948,0.67391,0.67818,0.68254,0.68678,0.69094,0.69493,0.69886,0.70266,0.70647,0.71012,0.71362,0.71705,0.7204,0.72366,0.7267,0.72968,0.73246,0.73513,0.73745,0.73957,0.74135,0.74293,0.74417,0.74503,0.74572,0.74612,0.74625,0.74614,0.74572,0.7451
-0.015345,-0.015407,-0.015475,-0.015502,-0.015478,-0.015411,-0.01529,-0.015089,-0.014757,-0.014309,-0.01367,-0.012886,-0.011858,-0.010555,-0.0089591,-0.0070583,-0.0048537,-0.002344,0.0005226,0.0035896,0.0068957,0.010443,0.014133,0.017985,0.021873,0.025815,0.029832,0.033732,0.037564,0.041348,0.04499,0.048472,0.051769,0.054898,0.057936,0.060795,0.063538,0.066264,0.06893,0.07158,0.074199,0.076744,0.079269,0.081624,0.083839,0.085858,0.08761,0.089085,0.090321,0.091222,0.091865,0.09218,0.092234,0.091956,0.09138,0.090477,0.089287,0.087795,0.086035,0.084104,0.082058,0.079877,0.077708,0.075559,0.073461,0.071486,0.069587,0.067863,0.066273,0.064809,0.063515,0.062345,0.061304,0.060406,0.059594,0.058907,0.058297,0.057747,0.057274,0.056848,0.056448,0.056087,0.055742,0.055397,0.055052,0.054691,0.054317,0.0539,0.053453,0.052977,0.05247,0.051947,0.051418,0.050892,0.050399,0.049948,0.049541,0.049214,0.048954,0.048799,0.048725,0.04876,0.0489,0.049175,0.049571,0.0501,0.050789,0.051616,0.052601,0.053762,0.055095,0.056622,0.058321,0.060193,0.062312,0.064574,0.067037,0.069668,0.072449,0.075414,0.078466,0.081598,0.084895,0.08819,0.091552,0.094917,0.098232,0.10158,0.1048,0.10792,0.11097,0.11388,0.11671,0.11941,0.12203,0.12463,0.12714,0.12964,0.13218,0.13484,0.13774,0.1409,0.1444,0.14837,0.15272,0.1576,0.1629,0.16867,0.17507,0.18188,0.18923,0.19716,0.20555,0.21451,0.22371,0.23313,0.24293,0.25262,0.26238,0.27194,0.2812,0.29034,0.29891,0.30701,0.31464,0.32156,0.328,0.3336,0.33859,0.34297,0.34669,0.34989,0.35257,0.35483,0.35678,0.3584,0.35976,0.3609,0.36184,0.36264,0.36325,0.36372,0.36404,0.3642,0.3642,0.36402,0.36371,0.36323,0.36265,0.36195,0.36117,0.36033,0.3594,0.35841,0.35736,0.35626,0.35508,0.35379,0.35248,0.35113,0.34972,0.34837,0.34688,0.34542,0.34396,0.34246,0.341,0.33954,0.33812,0.33673,0.33536,0.33406,0.33285,0.33167,0.33054,0.32953,0.32863,0.32783,0.32707,0.32638,0.32574,0.32516,0.32461,0.32412,0.32364,0.32319,0.32279,0.3224,0.32203,0.32167,0.32131,0.32095,0.32057,0.32014,0.31968,0.31914,0.31852,0.31783,0.31702,0.31611,0.31509,0.31397,0.31275,0.31137,0.3099,0.30829,0.30656,0.30475,0.30279,0.30078,0.29867,0.29653,0.29436,0.29211,0.28989,0.28765,0.28542,0.28323,0.28101,0.27886,0.27672,0.27462,0.27256,0.27051,0.26852,0.26655,0.26463,0.26278,0.26093,0.25918,0.25748,0.25583,0.25426,0.25277,0.25138,0.25009,0.24892,0.2479,0.24701,0.24627,0.24568,0.24524,0.24492,0.24476,0.24478,0.24506,0.2456,0.24647,0.24775,0.24937,0.25144,0.25391,0.25673,0.25998,0.26338,0.26695,0.27041,0.27374,0.27687,0.27963,0.2821,0.28411,0.28575,0.28704,0.28798,0.28875,0.28937,0.28994,0.2905,0.29106,0.29163,0.29216,0.29263,0.29298,0.2932,0.2933,0.2933,0.29327,0.29333,0.29351,0.2939,0.29446,0.29518,0.29596,0.29675,0.29752,0.29817,0.29872,0.29918,0.29953,0.29981,0.29996,0.30005,0.30006,0.30001,0.29993,0.29982,0.29962,0.29932,0.29885,0.29819,0.29736,0.29634,0.29517,0.29383,0.2924,0.29085,0.28924,0.28761,0.28594,0.2843,0.28269,0.28114,0.27968,0.27831,0.27702,0.27581,0.27468,0.27359,0.27249,0.27136,0.27019,0.26894,0.26761,0.26622,0.26476,0.26323,0.26177,0.26013,0.25851,0.25693,0.25539,0.25401,0.2528,0.25182,0.2511,0.25069,0.25057,0.25076,0.2513,0.25218,0.2534,0.25499,0.25697,0.25936,0.26235,0.26591,0.27012,0.27503,0.28071,0.28725,0.29466,0.30328,0.3129,0.3237,0.33559,0.34845,0.36229,0.37672,0.39193,0.40728,0.42276,0.43793,0.45256,0.46663,0.47959,0.49187,0.50305,0.51325,0.52242,0.5306,0.53782,0.54383,0.54882,0.55262,0.55521,0.55662,0.55694,0.5562,0.55448,0.55194,0.54883,0.5452,0.54121,0.53701,0.53262,0.52819,0.52368,0.51924,0.5148,0.51041,0.50611,0.50185,0.49768,0.4935,0.48941,0.48531,0.48123,0.47717,0.47311,0.46913,0.4651,0.4612,0.45735,0.45365,0.45009,0.44671,0.44354,0.44061,0.43804,0.43573,0.43377,0.43219,0.43101,0.43022,0.42985,0.42985,0.4303,0.43114,0.43242,0.4341,0.43622,0.43875,0.44163,0.4449,0.44839,0.45225,0.45625,0.46044,0.46477,0.46917,0.47368,0.47817,0.48272,0.48711,0.49149,0.49564,0.49967,0.50348,0.50706,0.5104,0.51349,0.51648,0.51923,0.52189,0.52437,0.52672,0.5289,0.53098,0.53294,0.53476,0.53643,0.53798,0.53942,0.54071,0.54188,0.54295,0.5439,0.54476,0.54545,0.54599,0.54637,0.54662,0.54671,0.54666,0.54645,0.54609,0.54561,0.54494,0.54413,0.54316,0.54202,0.5407,0.53915,0.53749,0.53567,0.53382,0.53192,0.53007,0.52819,0.52635,0.5245,0.52256,0.52057,0.51845,0.51629,0.51405,0.51183,0.50956,0.50733,0.50506,0.50283,0.50059,0.49829,0.496,0.49367,0.49131,0.48884,0.48637,0.48386,0.4814,0.47894,0.47648,0.47407,0.47168,0.46937,0.46706,0.46485,0.46262,0.46045,0.45829,0.45618,0.4541,0.45205,0.45011,0.44827,0.44648,0.44483,0.44329,0.44193,0.44077,0.43984,0.43924,0.43895,0.43905,0.43958,0.44055,0.44207,0.44406,0.44666,0.44978,0.45351,0.45775,0.46257,0.46784,0.47357,0.47957,0.48593,0.49236,0.49893,0.50543,0.5119,0.51826,0.52458,0.53086,0.53716,0.54352,0.54984,0.55607,0.56184,0.56697,0.57095,0.57375,0.57534,0.57596,0.57603,0.57603,0.57632,0.57718,0.57864,0.58076,0.5833,0.58603,0.58853,0.59053,0.59185,0.59242,0.59235,0.59205,0.5915,0.59095,0.59034,0.58964,0.58887,0.588,0.58711,0.58624,0.58555,0.58507,0.58479,0.58461,0.58449,0.58416,0.58348,0.5823,0.58079,0.57905,0.57737,0.57593,0.57488,0.57429,0.57398,0.57389,0.57381,0.57377,0.57371,0.57364,0.57346,0.57323,0.57295,0.57267,0.57249,0.57246,0.57254,0.57287,0.57345,0.57434,0.57549,0.577,0.57891,0.58112,0.58368,0.58659,0.58966,0.59296,0.5964,0.59992,0.60338,0.607,0.61055,0.61422,0.61778,0.62142,0.62491,0.62855,0.63223,0.6361,0.64008,0.64431,0.64855,0.65286,0.65715,0.66141,0.66556,0.66969,0.67362,0.67758,0.6814,0.68507,0.6887,0.69217,0.69558,0.69887,0.70207,0.70518,0.70807,0.71074,0.71328,0.71561,0.71757,0.71932,0.72079,0.72191,0.72276,0.72348,0.7238,0.72386,0.72367,0.72329,0.72266
